0.000990676468704478
0.000990613982495164
0.000990610626473333
0.000990671373369582
0.000990800993685681
0.000991004024640516
0.00099128473906622
0.000991647114662124
0.000992094804053367
0.00099263110608907
0.000993258938828827
0.000993980814747924
0.000994798818612553
0.000995714588542627
0.000996729300698421
0.000997843657933125
0.000999057882884358
0.00100037171565884
0.00100178441641479
0.00100329477294279
0.00100490111332923
0.00100660132353356
0.00100839286985309
0.00101027282590385
0.00101223790381958
0.00101428448924812
0.00101640867947634
0.00101860632418368
0.00102087306796547
0.00102320439396153
0.00102559566779046
0.00102804218092571
0.00103053919264636
0.00103308196969494
0.00103566582286691
0.00103828613975393
0.00104093841284964
0.00104361826247432
0.00104632145392291
0.0010490439083742
0.00105178170726387
0.00105453108988406
0.00105728844423485
0.00106005029111449
0.00106281326175151
0.00106557406933828
0.00106832947485043
0.00107107624788922
0.00107381112325319
0.00107653075408
0.0010792316624665
0.0010819101885889
0.00108456243937419
0.00108718423780765
0.00108977107398201
0.00109231805896426
0.00109481988255009
0.00109727077593377
0.00109966448023773
0.00110199422180139
0.0011042526949847
0.00110643205321045
0.0011085239087691
0.0011105193419052
0.00111240891946582
0.00111418272338237
0.00111583038905187
0.00111734115363089
0.00111870391414696
0.00111990729517709
0.0011209397258662
0.00112178952583157
0.00112244499962117
0.00112289453913483
0.00112312673353687
0.00112313048603764
0.00112289513692451
0.00112241059217959
0.00112166745696991
0.00112065717326441
0.00111937216074973
0.00111780596020415
0.00111595337832702
0.00111381063299899
0.0011113754977966
0.00110864744443512
0.00110562778170509
0.00110231978924083
0.00109872884431069
0.00109486253959556
0.00109073078971716
0.00108634592406557
0.00108172276329639
0.00107687867660727
0.00107183361684175
0.00106661013023023
0.00106123333759594
0.0010557308837238
0.00105013285171853
0.00104447163925037
0.00103878179382946
0.00103309980450198
0.00102746384787978
0.00102191348685354
0.00101648932101558
0.00101123258858834
0.00100618472055782
0.0010013868486071
0.000996879269599325
0.000992700870514674
0.00098888851892216
0.000985476425416756
0.000982495485644648
0.000979972610978239
0.00097793005795954
0.000976384768003153
0.000975347729770399
0.000974823377676434
0.000974809040668704
0.000975294456002013
0.000976261363044335
0.000977683192143102
0.000979524863308993
0.000981742708886785
0.000984284533412852
0.000987089822538938
0.000990090111243317
0.000993209519522173
0.000996365461369526
0.000999469530093501
0.00100242856014996
0.00100514586228058
0.00100752262521074
0.00100945947380877
0.00101085816953236
0.00101162343543173
0.00101166488421045
0.00101089902427062
0.00100925131524467
0.00100665824152065
0.00100306936947584
0.000998449351928747
0.000992779841576992
0.000986061274076445
0.000978314480967836
0.000969582092937491
0.000959929694839774
0.000949446695855918
0.000938246880601231
0.000926468610493245
0.000914274648833369
0.000901851587958801
0.0008894088623831
0.000877177338097738
0.000865407474914855
0.000854367065860359
0.000844338565190834
0.000835616024155184
0.000828501661423596
0.00082330210270418
0.000820324331388284
0.00081987139912751
0.000822237951662568
0.000827705630949352
0.000836538419588765
0.0008489779975832
0.000865239184259336
0.000885505540089896
0.000909925203537315
0.000938607037353957
0.000971617156635783
0.00100897590744227
0.00105065536013948
0.00109657737538325
0.0011466122936693
0.00120057829071485
0.0012582414317885
0.0013193164477412
0.00138346824465515
0.00145031414748133
0.00151942686638425
0.00159033816253408
0.00166254317834546
0.00173550538565101
0.00180866209433933
0.00188143045380619
0.00195321387011287
0.00202340875380426
0.00209141150615037
0.00215662564636544
0.00221846897822267
0.00227638069237857
0.00232982830000754
0.00237831429466093
0.00242138244212067
0.00245862360266322
0.00248968099653364
0.00251425483116154
0.00253210621808962
0.00254306031801925
0.00254700866419441
0.00254391062676116
0.00253379399417658
0.00251675466131445
0.00249295542786866
0.00246262392460653
0.00242604969855173
0.00238358050124182
0.0023356178366337
0.00228261183644814
0.00222505554104628
0.00216347867264557
0.00209844099514213
0.00203052536041047
0.00196033054501629
0.00188846398350895
0.00181553450483674
0.00174214517715975
0.00166888636314924
0.00159632908313931
0.0015250187771539
0.00145546954899354
0.00138815896658547
0.00132352348258018
0.00126195452815529
0.00120379532118782
0.00114933841781933
0.00109882402389442
0.00105243907032738
0.00101031704416105
0.000972538555315658
0.000939132607679249
0.000910078532949246
0.000885308536108047
0.000864710793189279
0.000848133034958729
0.000835386544402852
0.000826250491702856
0.000820476527447585
0.000817793553570354
0.000817912591451249
0.000820531668156901
0.000825340644538085
0.00083202591288646
0.00084027489698994
0.000849780293538472
0.000860244000700527
0.000871380687372214
0.000882920964654698
0.000894614129598661
0.000906230459878271
0.000917563046648066
0.000928429161402443
0.000938671160671016
0.000948156940228739
0.000956779957571329
0.000964458847841901
0.000971136664136661
0.000976779777878142
0.000981376478944966
0.00098493531818527
0.000987483237071015
0.000989063530319237
0.000989733687573153
0.000989563159532955
0.000988631092564522
0.000987024073478648
0.000984833923479728
0.000982155576761099
0.000979085075389906
0.000975717707891075
0.000972146314390063
0.000968459776591138
0.00096474170612025
0.000961069340087109
0.000957512648195199
0.000954133651464735
0.000950985948503042
0.000948114441718486
0.000945555252449866
0.000943335811314038
0.000941475107611392
0.000939984079786262
0.000938866127619911
0.000938117725900789
0.00093772911892938
0.000937685075240392
0.000937965682427178
0.000938547162743762
0.00093940269134346
0.000940503200443962
0.000941818154461875
0.000943316282924184
0.000944966260019586
0.000946737321677268
0.000948599813198369
0.000950525662430163
0.000952488775586689
0.000954465354613518
0.000956434136798021
0.000958376558912816
0.000960276849572955
0.000962122054693139
0.00096390200193727
0.000965609210777693
0.000967238755425654
0.000968788088178671
0.000970256830874636
0.000971646542193336
0.00097296046823875
0.000974203283553638
0.000975380829221174
0.000976499854117788
0.000977567764716768
0.000978592388146538
0.000979581752372454
0.000980543886689997
0.000981486644872542
0.00098241755255211
0.000983343679778032
0.000984271538935333
0.000985207007676294
0.000986155275916489
0.000987120815541011
0.000988107371065128
0.000989117969159729
0.000990154944812429
0.000991219981632325
0.000992314163860573
0.00099343803752494
0.000994591678311047
0.000995774763809321
0.000996986647891979
0.000998226435240284
0.000999493054205892
0.00100078532641653
0.00100210203180587
0.00100344196797761
0.00100480400304214
0.00100618712133848
0.00100759046165928
0.00100901334777626
0.00101045531128283
0.00101191610695059
0.00101339572087188
0.00101489437186273
0.00101641250660722
0.0010179507891845
0.00101951008560703
0.00102109144405106
0.00102269607145097
0.0010243253071946
0.00102598059453709
0.00102766345044664
0.00102937543443237
0.00103111811697169
0.00103289304806691
0.00103470172642324
0.00103654556964248
0.00103842588587585
0.00104034384726672
0.00104230046549018
0.00104429656967271
0.00104633278686426
0.00104840952533437
0.00105052696078561
0.00105268502569463
0.00105488340177771
0.00105712151571455
0.00105939853817398
0.00106171338610486
0.00106406472834933
0.00106645099450429
0.00106887038689885
0.00107132089564159
0.00107380031656328
0.00107630627180979
0.00107883623301346
0.00108138754658472
0.00108395746097354
0.00108654315543061
0.00108914176997031
0.00109175043611746
0.00109436630798644
0.00109698659318281
0.00109960858301656
0.00110222968156449
0.00110484743303034
0.00110745954686703
0.0011100639201774
0.00111265865688089
0.00111524208313702
0.00111781275864724
0.00112036948334193
0.00112291129923635
0.00112543748710139
0.00112794755774699
0.00113044123786722
0.00113291845025636
0.00113537928857236
0.0011378239867537
0.00114025288335453
0.00114266638108675
0.00114506490206134
0.00114744883919941
0.00114981850448045
0.00115217407470737
0.00115451553554645
0.00115684262468757
0.00115915477503509
0.0011614510588316
0.00116373013370278
0.00116599019156585
0.00116822891138183
0.0011704434167091
0.00117263023893409
0.00117478528707242
0.00117690382493217
0.00117898045632532
0.00118100911896972
0.0011829830875839
0.00118489498654793
0.00118673681240478
0.00118849996631573
0.00119017529645572
0.00119175315016229
0.00119322343556144
0.00119457569216531
0.00119579916986124
0.00119688291555965
0.00119781586661163
0.00119858695003675
0.00119918518644866
0.00119959979750364
0.00119982031562173
0.00119983669467655
0.00119963942027928
0.00119921961829673
0.0011985691602579
0.00119768076426013
0.00119654809008791
0.0011951658273189
0.00119352977519576
0.00119163691323275
0.00118948546158559
0.00118707493033522
0.00118440615700218
0.00118148133172688
0.00117830400975742
0.00117487911095965
0.00117121290633224
0.00116731299160764
0.00116318824818884
0.00115884879186884
0.00115430590987448
0.00114957198698235
0.00114466042153115
0.00113958553230109
0.001134362457342
0.0011290070458884
0.00112353574460846
0.0011179654794408
0.00111231353436459
0.0011065974284371
0.00110083479237843
0.00109504324608212
0.00108924027826209
0.0010834431295082
0.00107766867984001
0.00107193334187194
0.00106625296054514
0.00106064272029551
0.00105511706038888
0.00104968959908998
0.0010443730671461
0.00103917925096758
0.00103411894578613
0.00102920191886433
0.00102443688280566
0.00101983147881879
0.00101539226972317
0.00101112474234112
0.00100703331887589
0.00100312137673054
0.000999391276187514
0.000995844395312922
0.000992481171350003
0.000989301147871314
0.000986303026924011
0.000983484725378637
0.000980843434662491
0.000978375683118861
0.000976077400233624
0.000973943981939955
0.000971970356320357
0.000970151049034018
0.000968480247845678
0.000966951865681003
0.000965559601696187
0.000964296999912124
0.000963157505012069
0.00096213451497319
0.00096122143025443
0.000960411699360799
0.000959698860577205
0.000959076579808808
0.000958538684486019
0.000958079193492201
0.000957692343225564
0.000957372609795362
0.000957114727541056
0.00095691370396237
0.000956764831273549
0.000956663694732001
0.000956606177954708
0.000956588465452991
0.000956607042570076
0.000956658693062271
0.000956740494526058
0.00095684981191098
0.000956984289308811
0.00095714184020134
0.000957320636416015
0.000957519095893155
0.000957735869511298
0.000957969827059993
0.000958220042563761
0.000958485779061663
0.000958766472968934
0.000959061718158009
0.000959371249838781
0.000959694928368637
0.000960032723052842
0.000960384696042627
0.000960750986426491
0.000961131794571518
0.000961527366777595
0.000961937980400255
0.000962363929394484
0.000962805510462349
0.00096326300980016
0.000963736690571365
0.000964226781123381
0.000964733464078697
0.000965256866285057
0.000965797049756856
0.000966354003637623
0.000966927637233627
0.000967517774185757
0.00096812414778413
0.000968746397522178
0.000969384066834598
0.000970036602104314
0.000970703352910041
0.000971383573496092
0.000972076425481802
0.000972780981744061
0.000973496231434391
0.000974221086102011
0.000974954386799636
0.000975694912142136
0.000976441387173954
0.000977192492993789
0.000977946876963146
0.000978703163410868
0.000979459964688265
0.000980215892427389
0.000980969568903371
0.000981719638275262
0.000982464777641958
0.000983203707733834
0.000983935203078413
0.000984658101549793
0.000985371313152224
0.000986073827928378
0.000986764722867277
0.000987443167771859
0.000988108429936889
0.000988759877646438
0.000989396982395939
0.000990019319837184
0.000990626569445153
0.000991218512888539
0.000991795031158577
0.000992356100491373
0.00099290178716259
0.000993432241202138
0.000993947689156767
0.000994448426017302
0.000994934806387814
0.000995407235068806
0.000995866157188354
0.000996312048009679
0.000996745402587801
0.000997166725410207
0.000997576520174518
0.000997975279864692
0.000998363477238474
0.000998741555896429
0.000999109922020823
0.000999468936911312
0.000999818910430011
0.00100016009540717
0.0010004926830995
0.00100081679974778
0.00100113250425629
0.00100143978701212
0.00100173856984201
0.00100202870710311
0.00100230998783608
0.00100258213895854
0.00100284482939103
0.00100309767509123
0.00100334024485671
0.0010035720667928
0.00100379263537335
0.0010040014189229
0.00100419786746027
0.00100438142071228
0.00100455151622489
0.00100470759744866
0.00100484912166517
0.00100497556764346
0.00100508644294639
0.00100518129078606
0.00100525969633729
0.00100532129247962
0.00100536576485072
0.00100539285624397
0.00100540237024142
0.00100539417415281
0.00100536820118049
0.00100532445187296
0.00100526299486054
0.00100518396693696
0.00100508757247894
0.00100497408229554
0.00100484383195823
0.00100469721964947
0.00100453470359922
0.00100435679919919
0.00100416407583654
0.00100395715349338
0.00100373669920982
0.00100350342343858
0.00100325807635373
0.00100300144413306
0.00100273434527746
0.00100245762698217
0.00100217216155575
0.001001878842942
0.00100157858331466
0.00100127230974345
0.00100096096094056
0.00100064548403524
0.00100032683138877
0.0010000059574236
0.000999683815378066
0.00099936135406723
0.000999039514523081
0.000998719226545236
0.000998401405115951
0.000998086946665034
0.000997776725190746
0.000997471588215432
0.000997172352591859
0.000996879800161684
0.00099659467330617
0.000996317670391656
0.000996049441208205
0.000995790582371138
0.000995541632823506
0.000995303069450498
0.000995075302904926
0.000994858673716187
0.000994653448752458
0.000994459818155394
0.000994277892774301
0.000994107702230252
0.000993949193656083
0.000993802231221321
0.000993666596430911
0.000993541989347238
0.000993428030697756
0.000993324264949053
0.000993230164312968
0.000993145133740292
0.00099306851682444
0.000992999602631489
0.000992937633372373
0.000992881812847739
0.00099283131560435
0.000992785296673508
0.000992742901804954
0.000992703278029395
0.000992665584442752
0.000992629003046209
0.000992592749498665
0.000992556083614668
0.000992518319435118
0.000992478834731073
0.000992437079793693
0.000992392585316638
0.000992344969281671
0.000992293942709705
0.000992239314144472
0.000992180992804168
0.000992118990309782
0.000992053420966374
0.000991984500517758
0.000991912543415764
0.000991837958602655
0.0009917612438737
0.000991682978804641
0.00099160381648581
0.000991524473994627
0.000991445721895105
0.000991368372818416
0.000991293269328471
0.000991221271262189
0.00099115324270054
0.000991090038812337
0.000991032492732317
0.000990981402727981
0.000990937519794996
0.000990901535935249
0.000990874073258684
0.000990855674109479
0.000990846792348245
0.0009908477859636
0.000990858911096331
0.000990880317590458
0.000990912046118545
0.000990954026963143
0.000991006080424857
0.000991067918882136
0.000991139150433396
0.000991219284098131
0.00099130773644698
0.000991403839566455
0.000991506850237615
0.000991615960137433
0.000991730306936273
0.000991848986078005
0.000991971063079586
0.000992095586115864
0.000992221598703641
0.000992348152310321
0.000992474318645835
0.000992599201475595
0.000992721947765513
0.000992841758024781
0.00099295789565237
0.000993069695197083
0.000993176569419393
0.000993278015069008
0.000993373617319036
0.000993463052823319
0.000993546091414607
0.00099362259642024
0.000993692523682507
0.000993755919324665
0.000993812916343166
0.000993863730169441
0.000993908653282977
0.00099394804904753
0.000993982344909304
0.000994012025108189
0.000994037623063414
0.000994059713630117
0.00099407890534294
0.00099409583283645
0.000994111149577923
0.000994125521055233
0.000990676468704478
0.000990613982495164
0.000990610626473333
0.000990671373369582
0.000990800993685681
0.000991004024640516
0.00099128473906622
0.000991647114662124
0.000992094804053367
0.00099263110608907
0.000993258938828827
0.000993980814747924
0.000994798818612553
0.000995714588542627
0.000996729300698421
0.000997843657933125
0.000999057882884358
0.00100037171565884
0.00100178441641479
0.00100329477294279
0.00100490111332923
0.00100660132353356
0.00100839286985309
0.00101027282590385
0.00101223790381958
0.00101428448924812
0.00101640867947634
0.00101860632418368
0.00102087306796547
0.00102320439396153
0.00102559566779046
0.00102804218092571
0.00103053919264636
0.00103308196969494
0.00103566582286691
0.00103828613975393
0.00104093841284964
0.00104361826247432
0.00104632145392291
0.0010490439083742
0.00105178170726387
0.00105453108988406
0.00105728844423485
0.00106005029111449
0.00106281326175151
0.00106557406933828
0.00106832947485043
0.00107107624788922
0.00107381112325319
0.00107653075408
0.0010792316624665
0.0010819101885889
0.00108456243937419
0.00108718423780765
0.00108977107398201
0.00109231805896426
0.00109481988255009
0.00109727077593377
0.00109966448023773
0.00110199422180139
0.0011042526949847
0.00110643205321045
0.0011085239087691
0.0011105193419052
0.00111240891946582
0.00111418272338237
0.00111583038905187
0.00111734115363089
0.00111870391414696
0.00111990729517709
0.0011209397258662
0.00112178952583157
0.00112244499962117
0.00112289453913483
0.00112312673353687
0.00112313048603764
0.00112289513692451
0.00112241059217959
0.00112166745696991
0.00112065717326441
0.00111937216074973
0.00111780596020415
0.00111595337832702
0.00111381063299899
0.0011113754977966
0.00110864744443512
0.00110562778170509
0.00110231978924083
0.00109872884431069
0.00109486253959556
0.00109073078971716
0.00108634592406557
0.00108172276329639
0.00107687867660727
0.00107183361684175
0.00106661013023023
0.00106123333759594
0.0010557308837238
0.00105013285171853
0.00104447163925037
0.00103878179382946
0.00103309980450198
0.00102746384787978
0.00102191348685354
0.00101648932101558
0.00101123258858834
0.00100618472055782
0.0010013868486071
0.000996879269599325
0.000992700870514674
0.00098888851892216
0.000985476425416756
0.000982495485644648
0.000979972610978239
0.00097793005795954
0.000976384768003153
0.000975347729770399
0.000974823377676434
0.000974809040668704
0.000975294456002013
0.000976261363044335
0.000977683192143102
0.000979524863308993
0.000981742708886785
0.000984284533412852
0.000987089822538938
0.000990090111243317
0.000993209519522173
0.000996365461369526
0.000999469530093501
0.00100242856014996
0.00100514586228058
0.00100752262521074
0.00100945947380877
0.00101085816953236
0.00101162343543173
0.00101166488421045
0.00101089902427062
0.00100925131524467
0.00100665824152065
0.00100306936947584
0.000998449351928747
0.000992779841576992
0.000986061274076445
0.000978314480967836
0.000969582092937491
0.000959929694839774
0.000949446695855918
0.000938246880601231
0.000926468610493245
0.000914274648833369
0.000901851587958801
0.0008894088623831
0.000877177338097738
0.000865407474914855
0.000854367065860359
0.000844338565190834
0.000835616024155184
0.000828501661423596
0.00082330210270418
0.000820324331388284
0.00081987139912751
0.000822237951662568
0.000827705630949352
0.000836538419588765
0.0008489779975832
0.000865239184259336
0.000885505540089896
0.000909925203537315
0.000938607037353957
0.000971617156635783
0.00100897590744227
0.00105065536013948
0.00109657737538325
0.0011466122936693
0.00120057829071485
0.0012582414317885
0.0013193164477412
0.00138346824465515
0.00145031414748133
0.00151942686638425
0.00159033816253408
0.00166254317834546
0.00173550538565101
0.00180866209433933
0.00188143045380619
0.00195321387011287
0.00202340875380426
0.00209141150615037
0.00215662564636544
0.00221846897822267
0.00227638069237857
0.00232982830000754
0.00237831429466093
0.00242138244212067
0.00245862360266322
0.00248968099653364
0.00251425483116154
0.00253210621808962
0.00254306031801925
0.00254700866419441
0.00254391062676116
0.00253379399417658
0.00251675466131445
0.00249295542786866
0.00246262392460653
0.00242604969855173
0.00238358050124182
0.0023356178366337
0.00228261183644814
0.00222505554104628
0.00216347867264557
0.00209844099514213
0.00203052536041047
0.00196033054501629
0.00188846398350895
0.00181553450483674
0.00174214517715975
0.00166888636314924
0.00159632908313931
0.0015250187771539
0.00145546954899354
0.00138815896658547
0.00132352348258018
0.00126195452815529
0.00120379532118782
0.00114933841781933
0.00109882402389442
0.00105243907032738
0.00101031704416105
0.000972538555315658
0.000939132607679249
0.000910078532949246
0.000885308536108047
0.000864710793189279
0.000848133034958729
0.000835386544402852
0.000826250491702856
0.000820476527447585
0.000817793553570354
0.000817912591451249
0.000820531668156901
0.000825340644538085
0.00083202591288646
0.00084027489698994
0.000849780293538472
0.000860244000700527
0.000871380687372214
0.000882920964654698
0.000894614129598661
0.000906230459878271
0.000917563046648066
0.000928429161402443
0.000938671160671016
0.000948156940228739
0.000956779957571329
0.000964458847841901
0.000971136664136661
0.000976779777878142
0.000981376478944966
0.00098493531818527
0.000987483237071015
0.000989063530319237
0.000989733687573153
0.000989563159532955
0.000988631092564522
0.000987024073478648
0.000984833923479728
0.000982155576761099
0.000979085075389906
0.000975717707891075
0.000972146314390063
0.000968459776591138
0.00096474170612025
0.000961069340087109
0.000957512648195199
0.000954133651464735
0.000950985948503042
0.000948114441718486
0.000945555252449866
0.000943335811314038
0.000941475107611392
0.000939984079786262
0.000938866127619911
0.000938117725900789
0.00093772911892938
0.000937685075240392
0.000937965682427178
0.000938547162743762
0.00093940269134346
0.000940503200443962
0.000941818154461875
0.000943316282924184
0.000944966260019586
0.000946737321677268
0.000948599813198369
0.000950525662430163
0.000952488775586689
0.000954465354613518
0.000956434136798021
0.000958376558912816
0.000960276849572955
0.000962122054693139
0.00096390200193727
0.000965609210777693
0.000967238755425654
0.000968788088178671
0.000970256830874636
0.000971646542193336
0.00097296046823875
0.000974203283553638
0.000975380829221174
0.000976499854117788
0.000977567764716768
0.000978592388146538
0.000979581752372454
0.000980543886689997
0.000981486644872542
0.00098241755255211
0.000983343679778032
0.000984271538935333
0.000985207007676294
0.000986155275916489
0.000987120815541011
0.000988107371065128
0.000989117969159729
0.000990154944812429
0.000991219981632325
0.000992314163860573
0.00099343803752494
0.000994591678311047
0.000995774763809321
0.000996986647891979
0.000998226435240284
0.000999493054205892
0.00100078532641653
0.00100210203180587
0.00100344196797761
0.00100480400304214
0.00100618712133848
0.00100759046165928
0.00100901334777626
0.00101045531128283
0.00101191610695059
0.00101339572087188
0.00101489437186273
0.00101641250660722
0.0010179507891845
0.00101951008560703
0.00102109144405106
0.00102269607145097
0.0010243253071946
0.00102598059453709
0.00102766345044664
0.00102937543443237
0.00103111811697169
0.00103289304806691
0.00103470172642324
0.00103654556964248
0.00103842588587585
0.00104034384726672
0.00104230046549018
0.00104429656967271
0.00104633278686426
0.00104840952533437
0.00105052696078561
0.00105268502569463
0.00105488340177771
0.00105712151571455
0.00105939853817398
0.00106171338610486
0.00106406472834933
0.00106645099450429
0.00106887038689885
0.00107132089564159
0.00107380031656328
0.00107630627180979
0.00107883623301346
0.00108138754658472
0.00108395746097354
0.00108654315543061
0.00108914176997031
0.00109175043611746
0.00109436630798644
0.00109698659318281
0.00109960858301656
0.00110222968156449
0.00110484743303034
0.00110745954686703
0.0011100639201774
0.00111265865688089
0.00111524208313702
0.00111781275864724
0.00112036948334193
0.00112291129923635
0.00112543748710139
0.00112794755774699
0.00113044123786722
0.00113291845025636
0.00113537928857236
0.0011378239867537
0.00114025288335453
0.00114266638108675
0.00114506490206134
0.00114744883919941
0.00114981850448045
0.00115217407470737
0.00115451553554645
0.00115684262468757
0.00115915477503509
0.0011614510588316
0.00116373013370278
0.00116599019156585
0.00116822891138183
0.0011704434167091
0.00117263023893409
0.00117478528707242
0.00117690382493217
0.00117898045632532
0.00118100911896972
0.0011829830875839
0.00118489498654793
0.00118673681240478
0.00118849996631573
0.00119017529645572
0.00119175315016229
0.00119322343556144
0.00119457569216531
0.00119579916986124
0.00119688291555965
0.00119781586661163
0.00119858695003675
0.00119918518644866
0.00119959979750364
0.00119982031562173
0.00119983669467655
0.00119963942027928
0.00119921961829673
0.0011985691602579
0.00119768076426013
0.00119654809008791
0.0011951658273189
0.00119352977519576
0.00119163691323275
0.00118948546158559
0.00118707493033522
0.00118440615700218
0.00118148133172688
0.00117830400975742
0.00117487911095965
0.00117121290633224
0.00116731299160764
0.00116318824818884
0.00115884879186884
0.00115430590987448
0.00114957198698235
0.00114466042153115
0.00113958553230109
0.001134362457342
0.0011290070458884
0.00112353574460846
0.0011179654794408
0.00111231353436459
0.0011065974284371
0.00110083479237843
0.00109504324608212
0.00108924027826209
0.0010834431295082
0.00107766867984001
0.00107193334187194
0.00106625296054514
0.00106064272029551
0.00105511706038888
0.00104968959908998
0.0010443730671461
0.00103917925096758
0.00103411894578613
0.00102920191886433
0.00102443688280566
0.00101983147881879
0.00101539226972317
0.00101112474234112
0.00100703331887589
0.00100312137673054
0.000999391276187514
0.000995844395312922
0.000992481171350003
0.000989301147871314
0.000986303026924011
0.000983484725378637
0.000980843434662491
0.000978375683118861
0.000976077400233624
0.000973943981939955
0.000971970356320357
0.000970151049034018
0.000968480247845678
0.000966951865681003
0.000965559601696187
0.000964296999912124
0.000963157505012069
0.00096213451497319
0.00096122143025443
0.000960411699360799
0.000959698860577205
0.000959076579808808
0.000958538684486019
0.000958079193492201
0.000957692343225564
0.000957372609795362
0.000957114727541056
0.00095691370396237
0.000956764831273549
0.000956663694732001
0.000956606177954708
0.000956588465452991
0.000956607042570076
0.000956658693062271
0.000956740494526058
0.00095684981191098
0.000956984289308811
0.00095714184020134
0.000957320636416015
0.000957519095893155
0.000957735869511298
0.000957969827059993
0.000958220042563761
0.000958485779061663
0.000958766472968934
0.000959061718158009
0.000959371249838781
0.000959694928368637
0.000960032723052842
0.000960384696042627
0.000960750986426491
0.000961131794571518
0.000961527366777595
0.000961937980400255
0.000962363929394484
0.000962805510462349
0.00096326300980016
0.000963736690571365
0.000964226781123381
0.000964733464078697
0.000965256866285057
0.000965797049756856
0.000966354003637623
0.000966927637233627
0.000967517774185757
0.00096812414778413
0.000968746397522178
0.000969384066834598
0.000970036602104314
0.000970703352910041
0.000971383573496092
0.000972076425481802
0.000972780981744061
0.000973496231434391
0.000974221086102011
0.000974954386799636
0.000975694912142136
0.000976441387173954
0.000977192492993789
0.000977946876963146
0.000978703163410868
0.000979459964688265
0.000980215892427389
0.000980969568903371
0.000981719638275262
0.000982464777641958
0.000983203707733834
0.000983935203078413
0.000984658101549793
0.000985371313152224
0.000986073827928378
0.000986764722867277
0.000987443167771859
0.000988108429936889
0.000988759877646438
0.000989396982395939
0.000990019319837184
0.000990626569445153
0.000991218512888539
0.000991795031158577
0.000992356100491373
0.00099290178716259
0.000993432241202138
0.000993947689156767
0.000994448426017302
0.000994934806387814
0.000995407235068806
0.000995866157188354
0.000996312048009679
0.000996745402587801
0.000997166725410207
0.000997576520174518
0.000997975279864692
0.000998363477238474
0.000998741555896429
0.000999109922020823
0.000999468936911312
0.000999818910430011
0.00100016009540717
0.0010004926830995
0.00100081679974778
0.00100113250425629
0.00100143978701212
0.00100173856984201
0.00100202870710311
0.00100230998783608
0.00100258213895854
0.00100284482939103
0.00100309767509123
0.00100334024485671
0.0010035720667928
0.00100379263537335
0.0010040014189229
0.00100419786746027
0.00100438142071228
0.00100455151622489
0.00100470759744866
0.00100484912166517
0.00100497556764346
0.00100508644294639
0.00100518129078606
0.00100525969633729
0.00100532129247962
0.00100536576485072
0.00100539285624397
0.00100540237024142
0.00100539417415281
0.00100536820118049
0.00100532445187296
0.00100526299486054
0.00100518396693696
0.00100508757247894
0.00100497408229554
0.00100484383195823
0.00100469721964947
0.00100453470359922
0.00100435679919919
0.00100416407583654
0.00100395715349338
0.00100373669920982
0.00100350342343858
0.00100325807635373
0.00100300144413306
0.00100273434527746
0.00100245762698217
0.00100217216155575
0.001001878842942
0.00100157858331466
0.00100127230974345
0.00100096096094056
0.00100064548403524
0.00100032683138877
0.0010000059574236
0.000999683815378066
0.00099936135406723
0.000999039514523081
0.000998719226545236
0.000998401405115951
0.000998086946665034
0.000997776725190746
0.000997471588215432
0.000997172352591859
0.000996879800161684
0.00099659467330617
0.000996317670391656
0.000996049441208205
0.000995790582371138
0.000995541632823506
0.000995303069450498
0.000995075302904926
0.000994858673716187
0.000994653448752458
0.000994459818155394
0.000994277892774301
0.000994107702230252
0.000993949193656083
0.000993802231221321
0.000993666596430911
0.000993541989347238
0.000993428030697756
0.000993324264949053
0.000993230164312968
0.000993145133740292
0.00099306851682444
0.000992999602631489
0.000992937633372373
0.000992881812847739
0.00099283131560435
0.000992785296673508
0.000992742901804954
0.000992703278029395
0.000992665584442752
0.000992629003046209
0.000992592749498665
0.000992556083614668
0.000992518319435118
0.000992478834731073
0.000992437079793693
0.000992392585316638
0.000992344969281671
0.000992293942709705
0.000992239314144472
0.000992180992804168
0.000992118990309782
0.000992053420966374
0.000991984500517758
0.000991912543415764
0.000991837958602655
0.0009917612438737
0.000991682978804641
0.00099160381648581
0.000991524473994627
0.000991445721895105
0.000991368372818416
0.000991293269328471
0.000991221271262189
0.00099115324270054
0.000991090038812337
0.000991032492732317
0.000990981402727981
0.000990937519794996
0.000990901535935249
0.000990874073258684
0.000990855674109479
0.000990846792348245
0.0009908477859636
0.000990858911096331
0.000990880317590458
0.000990912046118545
0.000990954026963143
0.000991006080424857
0.000991067918882136
0.000991139150433396
0.000991219284098131
0.00099130773644698
0.000991403839566455
0.000991506850237615
0.000991615960137433
0.000991730306936273
0.000991848986078005
0.000991971063079586
0.000992095586115864
0.000992221598703641
0.000992348152310321
0.000992474318645835
0.000992599201475595
0.000992721947765513
0.000992841758024781
0.00099295789565237
0.000993069695197083
0.000993176569419393
0.000993278015069008
0.000993373617319036
0.000993463052823319
0.000993546091414607
0.00099362259642024
0.000993692523682507
0.000993755919324665
0.000993812916343166
0.000993863730169441
0.000993908653282977
0.00099394804904753
0.000993982344909304
0.000994012025108189
0.000994037623063414
0.000994059713630117
0.00099407890534294
0.00099409583283645
0.000994111149577923
0.000994125521055233
