Interval=	0.05 s
ExcelDateTime=	4.4588648064983885e+004	27/01/2022 15:33:12.814608
TimeFormat=	StartOfBlock
DateFormat=	
ChannelTitle=	BraBP	TCD (cm/s)	ETCO2	LBNP Pressure	MAP
Range=	10.000 V	10.000 V	100.0000 mmHg	200.0 mV	100.0000 mmHg
UnitName=	mmHg	cm/s	*	*	*
TopValue=	621.60	160	*	*	*
BottomValue=	-584.98	-160	*	*	*
19.4	73.04634	59.44103	0.2616313	1.940625	80.31591
19.45	71.85861	58.60013	0.2616313	1.94125	80.31591
19.5	71.04228	61.066	0.2616313	1.942875	80.31591
19.55	70.05325	101.2471	0.2616313	1.939125	80.31591
19.6	69.16566	104.1912	0.2616313	1.939625	80.31591
19.65	79.46763	94.68602	0.2616313	1.94025	80.31591
19.7	100.1251	91.9187	0.2616313	1.939	80.85095
19.75	100.1873	86.50624	0.2616313	1.937	81.92102
19.8	94.96395	76.35003	0.2616313	1.93575	81.92102
19.85	89.73756	78.51466	0.2616313	1.938625	81.92102
19.9	84.70346	80.56153	0.2616313	1.94125	81.92102
19.95	81.85969	78.27454	0.2616313	1.93775	81.92102
20	82.94486	76.59065	0.2616313	1.932625	81.92102
20.05	84.16841	74.24603	0.2616313	1.940875	81.92102
20.1	83.14696	68.40897	0.2616313	1.934125	81.92102
20.15	80.72587	67.68683	0.2608483	1.933625	81.92102
20.2	78.21543	64.98175	0.2592822	1.932875	81.92102
20.25	76.37651	64.14105	0.2592822	1.938875	81.92102
20.3	74.82643	62.03135	0.2592822	1.931375	81.92102
20.35	73.70581	59.86293	0.2592822	1.93075	81.92102
20.4	72.93209	87.65318	0.2592822	1.940375	81.92102
20.45	72.39554	106.8088	0.2592822	1.932625	81.92102
20.5	71.64218	95.94942	0.2592822	1.9365	81.92102
20.55	70.93142	92.94229	0.2592822	1.93575	81.92102
20.6	83.02254	90.11555	0.2592822	1.934625	81.92102
20.65	100.6628	77.61363	0.2592822	1.938375	82.46994
20.7	99.20812	81.39832	0.2592822	1.935125	83.56777
20.75	93.40746	82.8414	0.2592822	1.935625	83.56777
20.8	88.69801	77.91397	0.2592822	1.93225	83.56777
20.85	83.59378	76.46989	0.2592822	1.932875	83.56777
20.9	82.42075	74.30577	0.2592822	1.932875	83.56777
20.95	84.56018	70.69725	0.2592822	1.935875	83.56777
21	85.22644	67.92704	0.2584992	1.94375	83.56777
21.05	83.36679	69.13142	0.2569331	1.94075	83.56777
21.1	80.87406	63.11426	0.2569331	1.9355	83.56777
21.15	78.70673	61.30951	0.2569331	1.936375	83.56777
21.2	77.4236	79.95584	0.2569331	1.9365	83.56777
21.25	76.32825	109.9392	0.2569331	1.934875	83.56777
21.3	75.61486	98.83708	0.2569331	1.938875	83.56777
21.35	74.587	100.7633	0.2569331	1.93775	83.56777
21.4	73.33291	92.94299	0.2569331	1.937625	83.56777
21.45	79.32699	84.76401	0.2569331	1.937125	83.56777
21.5	101.2499	86.26573	0.2569331	1.937125	84.41628
21.55	102.1692	84.70469	0.2569331	1.935	86.11329
21.6	97.46196	82.72275	0.2569331	1.936625	86.11329
21.65	91.89848	81.76079	0.2569331	1.9405	86.11329
21.7	86.06841	77.07007	0.2569331	1.93675	86.11329
21.75	83.53458	73.58342	0.2444045	1.937875	86.11329
21.8	86.17851	72.05129	0.2193472	1.9355	86.11329
21.85	87.50273	68.34864	0.2193472	1.9405	86.11329
21.9	85.62687	67.08485	0.2193472	1.933625	86.11329
21.95	82.90301	67.80789	0.2193472	1.932375	86.11329
22	80.65612	64.55705	0.2193472	1.93325	86.11329
22.05	79.29343	63.59519	0.2193472	1.937875	86.11329
22.1	78.30026	100.7078	0.2193472	1.9375	86.11329
22.15	77.12384	104.5511	0.2193472	1.933625	86.11329
22.2	75.62655	101.5734	0.2193472	1.9395	86.11329
22.25	79.52683	102.6863	0.2193472	1.944125	86.11329
22.3	102.754	93.78309	0.2193472	1.939875	86.80545
22.35	105.8998	83.68321	0.2193472	1.9365	88.18974
22.4	103.1748	86.2076	0.2193472	1.935	88.18974
22.45	97.25006	84.76361	0.2193472	1.932	88.18974
22.5	90.61308	84.64436	0.2193472	1.9335	88.18974
22.55	87.46126	81.28057	0.2193472	1.937625	88.18974
22.6	89.18102	77.79191	0.2193472	1.93425	88.18974
22.65	90.00602	72.74252	0.2404893	1.93125	88.18974
22.7	88.36129	71.8399	0.2827734	1.939125	88.18974
22.75	85.76412	70.1556	0.2827734	1.9325	88.18974
22.8	83.40638	66.90396	0.2827734	1.933625	88.18974
22.85	81.69378	65.69909	0.2827734	1.930125	88.18974
22.9	80.41593	64.08062	0.2827734	1.928	88.18974
22.95	79.41334	60.46201	0.2827734	1.93	88.18974
23	78.6645	59.01583	0.2827734	1.930625	88.18974
23.05	77.53634	71.77176	0.2827734	1.930875	88.18974
23.1	76.70418	104.6123	0.2827734	1.9375	88.18974
23.15	90.29447	103.2872	0.2827734	1.938875	88.18974
23.2	108.469	97.75327	0.2827734	1.93775	88.21328
23.25	108.4747	95.94891	0.2827734	1.93575	88.26035
23.3	104.4247	85.9976	0.2827734	1.93925	88.26035
23.35	97.76851	78.57388	0.2827734	1.941875	88.26035
23.4	90.96224	83.20338	0.2827734	1.939375	88.26035
23.45	89.94569	80.31761	0.2827734	1.939875	88.26035
23.5	91.57232	80.85997	0.2827734	1.94225	88.26035
23.55	91.31366	77.49207	0.2827734	1.940375	88.26035
23.6	89.22853	72.02078	0.2827734	1.93775	88.26035
23.65	86.42397	69.7341	0.2827734	1.94175	88.26035
23.7	84.04851	65.64006	0.2827734	1.937125	88.26035
23.75	82.45468	63.59769	0.2827734	1.94075	88.26035
23.8	81.11953	63.68713	0.2827734	1.943875	88.26035
23.85	79.94386	61.96902	0.2827734	1.93975	88.26035
23.9	78.95521	59.13698	0.2827734	1.943375	88.26035
23.95	78.20788	56.48753	0.2827734	1.9415	88.26035
24	77.61967	63.8304	0.2827734	1.941625	88.26035
24.05	76.50245	100.4012	0.2827734	1.942875	88.26035
24.1	76.20759	96.49067	0.2827734	1.943875	88.26035
24.15	93.55903	90.35286	0.2827734	1.938375	88.26035
24.2	107.8948	89.21192	0.2827734	1.944	88.1022
24.25	106.9891	80.79824	0.2827734	1.939625	87.78591
24.3	101.7012	75.50823	0.2827734	1.940125	87.78591
24.35	94.9583	82.36018	0.2827734	1.9365	87.78591
24.4	88.76512	79.53604	0.2827734	1.9385	87.78591
24.45	88.77795	73.28318	0.2827734	1.942125	87.78591
24.5	90.71149	71.35777	0.2827734	1.939375	87.78591
24.55	90.68095	69.67397	0.2827734	1.935625	87.78591
24.6	88.16786	66.90036	0.2827734	1.932	87.78591
24.65	85.22681	63.29765	0.2827734	1.93375	87.78591
24.7	82.97842	63.14588	0.2827734	1.935875	87.78591
24.75	81.38158	61.00697	0.2827734	1.931625	87.78591
24.8	80.14407	59.68074	0.2827734	1.935875	87.78591
24.85	79.00536	63.05064	0.2827734	1.9285	87.78591
24.9	78.28292	95.77092	0.2827734	1.92325	87.78591
24.95	77.54539	103.2297	0.2827734	1.927125	87.78591
25	76.27094	93.30246	0.2827734	1.924	87.78591
25.05	76.24379	93.1813	0.2710278	1.927625	87.78591
25.1	94.74865	87.34944	0.2475366	1.925875	87.78591
25.15	107.1048	76.2885	0.2475366	1.9265	87.62913
25.2	104.0703	82.12056	0.2475366	1.92925	87.31558
25.25	97.02646	81.04095	0.2475366	1.925	87.31558
25.3	90.36159	77.73148	0.2475366	1.92375	87.31558
25.35	85.3388	75.68772	0.2475366	1.927	87.31558
25.4	87.48878	70.5757	0.2475366	1.928625	87.31558
25.45	90.20963	68.16696	0.2475366	1.92975	87.31558
25.5	89.26209	66.54419	0.2475366	1.927875	87.31558
25.55	86.40587	62.11979	0.2475366	1.93275	87.31558
25.6	83.47877	61.48829	0.2475366	1.927	87.31558
25.65	81.53542	60.6452	0.2475366	1.925625	87.31558
25.7	80.18141	56.8513	0.2475366	1.930125	87.31558
25.75	79.03138	72.00988	0.2475366	1.92975	87.31558
25.8	78.05857	105.6982	0.2475366	1.927625	87.31558
25.85	76.92098	96.06847	0.2475366	1.9275	87.31558
25.9	75.75022	93.84512	0.2475366	1.929	87.31558
25.95	87.32816	92.21825	0.2475366	1.932125	87.31558
26	108.417	81.39952	0.2475366	1.937875	87.29881
26.05	107.2979	75.14496	0.2475366	1.9365	87.26527
26.1	101.4671	80.4979	0.2475366	1.935875	87.26527
26.15	94.57031	78.69484	0.2475366	1.9325	87.26527
26.2	87.64865	75.4474	0.2475366	1.933875	87.26527
26.25	86.28371	70.27455	0.2475366	1.929375	87.26527
26.3	89.14558	68.19677	0.2475366	1.932	87.26527
26.35	89.62519	66.00023	0.2475366	1.931875	87.26527
26.4	87.19543	61.54932	0.2467536	1.932875	87.26527
26.45	84.03644	58.65465	0.2451875	1.934875	87.26527
26.5	81.56407	57.39165	0.2451875	1.93275	87.26527
26.55	79.84658	55.82241	0.2451875	1.92725	87.26527
26.6	78.45033	53.41837	0.2451875	1.925625	87.26527
26.65	77.38326	54.02506	0.2451875	1.92525	87.26527
26.7	76.3867	95.23147	0.2451875	1.92525	87.26527
26.75	74.99309	100.4042	0.2451875	1.924375	87.26527
26.8	75.91462	91.43648	0.2451875	1.9225	87.26527
26.85	98.60331	90.71213	0.2451875	1.925	87.26527
26.9	108.0505	83.14195	0.2624144	1.924	86.72485
26.95	104.8908	73.28278	0.2968681	1.928125	85.64401
27	98.20137	74.48595	0.2968681	1.93325	85.64401
27.05	91.58853	74.24534	0.2968681	1.92925	85.64401
27.1	85.76337	71.6298	0.2968681	1.93425	85.64401
27.15	85.95152	68.95133	0.2968681	1.928625	85.64401
27.2	88.08303	66.30187	0.2968681	1.929625	85.64401
27.25	87.71916	63.65722	0.2968681	1.9275	85.64401
27.3	85.11144	60.82548	0.2968681	1.92825	85.64401
27.35	82.03804	56.48813	0.2968681	1.93025	85.64401
27.4	79.79379	55.1646	0.2968681	1.928375	85.64401
27.45	78.19016	54.20355	0.2968681	1.9225	85.64401
27.5	76.72341	52.52185	0.2882547	1.92975	85.64401
27.55	75.54548	48.51285	0.2710278	1.933625	85.64401
27.6	74.64997	61.48199	0.2710278	1.9305	85.64401
27.65	73.60702	98.77805	0.2710278	1.926375	85.64401
27.7	72.64553	92.21924	0.2710278	1.927625	85.64401
27.75	85.12161	84.04497	0.2710278	1.938625	85.64401
27.8	106.5532	79.41609	0.2710278	1.935375	85.11298
27.85	105.468	71.35787	0.2710278	1.938	84.05093
27.9	99.12064	65.81954	0.2710278	1.936625	84.05093
27.95	92.50931	73.16062	0.2710278	1.936875	84.05093
28	86.12157	71.90133	0.2710278	1.938625	84.05093
28.05	83.68767	69.7344	0.2710278	1.935	84.05093
28.1	85.5409	67.1969	0.2710278	1.934625	84.05093
28.15	86.66227	64.85729	0.2710278	1.93725	84.05093
28.2	84.88784	61.00617	0.2710278	1.93175	84.05093
28.25	81.92718	60.64649	0.2710278	1.924875	84.05093
28.3	79.29268	57.03168	0.2710278	1.930875	84.05093
28.35	77.44736	53.30412	0.2710278	1.93725	84.05093
28.4	75.94101	50.77062	0.2710278	1.928	84.05093
28.45	74.58926	70.38681	0.2710278	1.93225	84.05093
28.5	73.62437	105.7276	0.2710278	1.93075	84.05093
28.55	72.84612	92.7611	0.2710278	1.929875	84.05093
28.6	71.78319	88.55251	0.2710278	1.926	84.05093
28.65	72.29184	83.2633	0.2710278	1.93	84.05093
28.7	93.59524	74.06515	0.2710278	1.92325	84.05093
28.75	104.8259	69.12861	0.2733769	1.925125	83.89287
28.8	100.9301	76.58924	0.2780752	1.92625	83.57676
28.85	92.58849	73.82454	0.2780752	1.925875	83.57676
28.9	86.32669	72.62317	0.2780752	1.9235	83.57676
28.95	81.00113	69.97511	0.2780752	1.927375	83.57676
29	81.7526	65.58193	0.2780752	1.9265	83.57676
29.05	85.1959	64.25641	0.2780752	1.927125	83.57676
29.1	85.1597	59.07936	0.2780752	1.927	83.57676
29.15	82.58703	59.56048	0.2780752	1.927375	83.57676
29.2	79.56793	54.44316	0.2780752	1.92375	83.57676
29.25	77.39231	60.00829	0.2780752	1.92375	83.57676
29.3	76.04244	100.6705	0.2780752	1.92375	83.57676
29.35	75.01684	99.01736	0.2780752	1.928125	83.57676
29.4	73.82986	90.02221	0.2780752	1.9325	83.57676
29.45	72.21191	90.53325	0.2780752	1.93425	83.57676
29.5	73.10327	84.28229	0.2780752	1.9365	83.57676
29.55	95.99672	73.10199	0.2780752	1.932125	83.57676
29.6	105.275	76.77033	0.2780752	1.9335	83.76096
29.65	101.0576	78.69504	0.2780752	1.931625	84.12938
29.7	92.94934	75.50533	0.2780752	1.93075	84.12938
29.75	86.61326	71.17838	0.2780752	1.927125	84.12938
29.8	81.08144	67.74576	0.2780752	1.9315	84.12938
29.85	82.17378	66.66065	0.2780752	1.932625	84.12938
29.9	85.27281	63.35378	0.2780752	1.93625	84.12938
29.95	84.71553	60.70552	0.2780752	1.937875	84.12938
30	81.89249	57.99574	0.2780752	1.937375	84.12938
30.05	78.89601	54.7421	0.2780752	1.93625	84.12938
30.1	76.84746	61.72451	0.2780752	1.932875	84.12938
30.15	75.53077	101.6641	0.274943	1.930875	84.12938
30.2	74.46785	99.13862	0.2686787	1.93	84.12938
30.25	72.96678	92.40063	0.2686787	1.92325	84.12938
30.3	71.86803	89.87213	0.2686787	1.9285	84.12938
30.35	87.20599	83.98315	0.2686787	1.924375	84.12938
30.4	106.3277	73.16112	0.2686787	1.930875	84.05367
30.45	103.9123	76.16765	0.2686787	1.929125	83.90225
30.5	96.21465	76.65007	0.2686787	1.932	83.90225
30.55	89.59465	74.00472	0.2710278	1.923375	83.90225
30.6	83.18844	70.39561	0.2757261	1.92325	83.90225
30.65	81.83216	67.26383	0.2757261	1.927625	83.90225
30.7	84.8392	64.79946	0.2757261	1.926875	83.90225
30.75	85.30864	60.34545	0.2757261	1.92575	83.90225
30.8	82.86982	59.74107	0.2757261	1.928	83.90225
30.85	79.82245	56.24581	0.2757261	1.92775	83.90225
30.9	77.43077	56.0064	0.2757261	1.931	83.90225
30.95	75.68763	52.40109	0.2757261	1.924625	83.90225
31	74.3585	56.26882	0.2757261	1.927375	83.90225
31.05	73.30387	99.17104	0.2757261	1.9305	83.90225
31.1	72.04713	100.4016	0.2757261	1.931375	83.90225
31.15	71.4314	90.05262	0.274943	1.926625	83.90225
31.2	89.33486	87.88889	0.273377	1.930875	83.90225
31.25	106.3858	81.39892	0.273377	1.933125	83.47912
31.3	103.6917	72.50021	0.273377	1.929375	82.63287
31.35	96.1728	73.10279	0.273377	1.933	82.63287
31.4	89.6776	74.15529	0.273377	1.933375	82.63287
31.45	83.35849	71.26953	0.273377	1.936	82.63287
31.5	82.08555	68.64999	0.273377	1.930125	82.63287
31.55	84.39465	67.44371	0.273377	1.929375	82.63287
31.6	84.80753	63.53726	0.273377	1.926625	82.63287
31.65	82.46713	61.00767	0.273377	1.922625	82.63287
31.7	79.44689	58.83674	0.273377	1.922875	82.63287
31.75	77.03146	55.82391	0.273377	1.92225	82.63287
31.8	75.22272	55.04605	0.273377	1.92475	82.63287
31.85	73.73975	52.33906	0.273377	1.9245	82.63287
31.9	72.46228	50.46978	0.273377	1.9285	82.63287
31.95	71.52491	79.59196	0.273377	1.926375	82.63287
32	70.6392	105.3375	0.273377	1.927375	82.63287
32.05	69.63171	91.13804	0.2702448	1.930875	82.63287
32.1	82.12514	88.13041	0.2639805	1.93025	82.63287
32.15	104.7101	82.72184	0.2639805	1.92825	82.15747
32.2	103.1898	76.2859	0.2639805	1.9285	81.20667
32.25	95.72938	68.58986	0.2639805	1.934125	81.20667
32.3	88.92952	76.10801	0.2639805	1.927	81.20667
32.35	82.81704	72.01938	0.2639805	1.93025	81.20667
32.4	80.20553	68.59056	0.2639805	1.92875	81.20667
32.45	82.0995	68.22839	0.2639805	1.92575	81.20667
32.5	83.53081	66.54289	0.2639805	1.93	81.20667
32.55	82.01994	61.00617	0.2639805	1.931	81.20667
32.6	79.23235	59.19881	0.2639805	1.92825	81.20667
32.65	76.47229	60.16267	0.2639805	1.927125	81.20667
32.7	74.5376	57.45359	0.2639805	1.927375	81.20667
32.75	73.06104	51.55269	0.2639805	1.925125	81.20667
32.8	71.78056	60.28092	0.2639805	1.925625	81.20667
32.85	70.79983	97.57649	0.2639805	1.9275	81.20667
32.9	69.90243	102.3243	0.2639805	1.927	81.20667
32.95	68.74675	88.36932	0.2639805	1.924625	81.20667
33	71.76434	83.44389	0.2600653	1.92575	81.20667
33.05	97.21084	80.79634	0.2522349	1.92425	80.91337
33.1	102.0538	66.96589	0.2522349	1.9345	80.32677
33.15	96.90278	74.42582	0.2522349	1.927	80.32677
33.2	88.94234	74.72406	0.2522349	1.92925	80.32677
33.25	82.93694	71.23661	0.2522349	1.9295	80.32677
33.3	78.25464	70.63663	0.2522349	1.92775	80.32677
33.35	79.12376	67.6272	0.2522349	1.931	80.32677
33.4	81.82462	63.80969	0.2522349	1.931125	80.32677
33.45	81.51242	63.17459	0.2522349	1.93625	80.32677
33.5	79.04156	62.92938	0.2522349	1.939125	80.32677
33.55	76.29959	57.99284	0.2522349	1.938125	80.32677
33.6	74.25142	59.25844	0.2522349	1.94275	80.32677
33.65	72.76392	96.31568	0.2522349	1.93525	80.32677
33.7	71.53208	103.7106	0.2522349	1.936625	80.32677
33.75	70.49404	92.99991	0.2522349	1.934125	80.32677
33.8	69.31045	91.61836	0.2522349	1.9385	80.32677
33.85	68.16872	87.76914	0.2522349	1.942	80.32677
33.9	79.2825	76.16985	0.2522349	1.938625	80.32677
33.95	101.1417	79.6598	0.2522349	1.937625	80.4363
34	98.84275	82.18389	0.2522349	1.939875	80.65539
34.05	90.62025	75.08813	0.2522349	1.94	80.65539
34.1	83.81322	73.70398	0.2522349	1.938125	80.65539
34.15	77.57971	70.5769	0.2522349	1.93825	80.65539
34.2	76.83728	68.71111	0.2522349	1.9425	80.65539
34.25	80.59353	65.9387	0.2522349	1.943625	80.65539
34.3	81.79747	63.05464	0.2522349	1.9405	80.65539
34.35	79.77908	60.88661	0.2592822	1.9465	80.65539
34.4	76.99074	83.56115	0.273377	1.9435	80.65539
34.45	74.65864	109.91	0.273377	1.9455	80.65539
34.5	73.19566	97.75146	0.273377	1.94225	80.65539
34.55	72.15083	96.79121	0.273377	1.94	80.65539
34.6	70.7033	92.21874	0.273377	1.93775	80.65539
34.65	69.57552	83.80276	0.273377	1.937	80.65539
34.7	81.67681	79.2359	0.273377	1.930625	80.65539
34.75	102.981	85.06646	0.273377	1.93175	81.26535
34.8	100.5565	81.39792	0.273377	1.925875	82.48526
34.85	93.13259	78.15339	0.273377	1.936	82.48526
34.9	86.89906	73.70418	0.273377	1.9315	82.48526
34.95	80.51849	71.41849	0.273377	1.931	82.48526
35	79.13469	68.52953	0.273377	1.93075	82.48526
35.05	82.18358	66.24064	0.273377	1.931375	82.48526
35.1	82.68921	65.16193	0.273377	1.933375	82.48526
35.15	80.47589	60.60758	0.273377	1.938125	82.48526
35.2	77.54539	84.10551	0.273377	1.9375	82.48526
35.25	75.49495	109.128	0.273377	1.9295	82.48526
35.3	74.09418	98.35325	0.273377	1.930375	82.48526
35.35	72.66664	99.79974	0.273377	1.92975	82.48526
35.4	71.04492	90.77646	0.273377	1.926375	82.48526
35.45	72.83293	80.43917	0.273377	1.933	82.48526
35.5	97.59242	80.61945	0.273377	1.929125	82.71546
35.55	102.8026	83.86659	0.273377	1.932625	83.17585
35.6	99.0539	79.59737	0.273377	1.9345	83.17585
35.65	91.91092	76.22967	0.2631974	1.929125	83.17585
35.7	85.65327	71.72214	0.2428384	1.929875	83.17585
35.75	80.96003	71.36147	0.2428384	1.93225	83.17585
35.8	82.33289	67.2049	0.2428384	1.923625	83.17585
35.85	84.48778	65.5213	0.2428384	1.92825	83.17585
35.9	82.79215	62.87525	0.2428384	1.93225	83.17585
35.95	79.91143	61.31081	0.2428384	1.929875	83.17585
36	77.17512	58.9599	0.2428384	1.929125	83.17585
36.05	75.28418	62.81142	0.2428384	1.931	83.17585
36.1	74.06439	71.29113	0.2428384	1.92875	83.17585
36.15	72.66589	106.6581	0.2459706	1.929875	83.17585
36.2	71.06151	99.19905	0.2522349	1.934	83.17585
36.25	73.91207	94.14336	0.2522349	1.929	83.17585
36.3	100.2194	92.93998	0.2522349	1.931375	82.93652
36.35	103.1793	82.81209	0.2522349	1.933375	82.45786
36.4	99.48035	76.7101	0.2522349	1.93175	82.45786
36.45	92.42937	81.03995	0.2522349	1.931625	82.45786
36.5	85.68833	80.01687	0.2522349	1.933875	82.45786
36.55	81.67681	74.72827	0.2522349	1.9315	82.45786
36.6	83.34152	74.36689	0.2522349	1.930625	82.45786
36.65	85.27169	68.10833	0.2522349	1.935125	82.45786
36.7	83.50743	66.1511	0.2522349	1.934875	82.45786
36.75	80.67799	68.65089	0.2522349	1.933875	82.45786
36.8	78.11211	61.37054	0.2522349	1.937875	82.45786
36.85	76.16649	60.64359	0.2522349	1.93975	82.45786
36.9	74.59492	58.71538	0.2522349	1.942375	82.45786
36.95	73.20961	58.1164	0.2522349	1.9395	82.45786
37	72.32805	56.19049	0.2522349	1.939125	82.45786
37.05	71.52416	72.67589	0.2522349	1.938375	82.45786
37.1	70.55738	108.5226	0.2522349	1.93525	82.45786
37.15	71.00532	96.60973	0.2522349	1.935875	82.45786
37.2	93.45534	91.73592	0.2522349	1.93425	82.45786
37.25	104.4522	88.37162	0.254584	1.931875	82.32517
37.3	101.3064	80.25638	0.2592822	1.93475	82.05981
37.35	93.5285	75.26822	0.2592822	1.93025	82.05981
37.4	87.33343	77.16121	0.2592822	1.931875	82.05981
37.45	82.10742	75.26872	0.2592822	1.935375	82.05981
37.5	82.79441	74.18591	0.2592822	1.93125	82.05981
37.55	85.29054	73.58192	0.2592822	1.926625	82.05981
37.6	84.44442	70.39461	0.2592822	1.930625	82.05981
37.65	81.79898	66.7817	0.2592822	1.931875	82.05981
37.7	79.04721	63.89743	0.2592822	1.9295	82.05981
37.75	76.86593	60.82658	0.2592822	1.922625	82.05981
37.8	75.2476	59.26024	0.2592822	1.924625	82.05981
37.85	73.77217	59.14178	0.2592822	1.93025	82.05981
37.9	72.65495	54.62294	0.2592822	1.9245	82.05981
37.95	71.78772	61.96542	0.2592822	1.926375	82.05981
38	71.07923	102.7506	0.2592822	1.932375	82.05981
38.05	70.01932	103.1077	0.2592822	1.9295	82.05981
38.1	72.54221	91.85867	0.2592822	1.932875	82.05981
38.15	98.12784	88.37083	0.2592822	1.93375	81.97102
38.2	102.9116	82.84031	0.2592822	1.934625	81.79344
38.25	98.50452	70.45614	0.2592822	1.92875	81.79344
38.3	91.0927	78.75367	0.2592822	1.926125	81.79344
38.35	85.36896	78.75747	0.2592822	1.93175	81.79344
38.4	81.30994	73.52449	0.2624144	1.926875	81.79344
38.45	82.28915	73.64355	0.2686787	1.927	81.79344
38.5	84.43084	71.60049	0.2686787	1.922	81.79344
38.55	83.57643	66.54029	0.2686787	1.92725	81.79344
38.6	81.10632	63.89924	0.2686787	1.931625	81.79344
38.65	78.36323	68.95023	0.2686787	1.92475	81.79344
38.7	76.34786	61.12572	0.2686787	1.93425	81.79344
38.75	74.74046	57.99444	0.2686787	1.939375	81.79344
38.8	73.39512	60.70232	0.2686787	1.93875	81.79344
38.85	72.33596	98.02659	0.2686787	1.935125	81.79344
38.9	71.50342	104.4618	0.2686787	1.93475	81.79344
38.95	70.56869	91.92051	0.2686787	1.9355	81.79344
39	69.8636	91.25829	0.2686787	1.93375	81.79344
39.05	83.91239	85.3648	0.2686787	1.93475	81.79344
39.1	103.9319	77.01004	0.2686787	1.92625	81.92939
39.15	100.4456	82.90093	0.2686787	1.92875	82.20128
39.2	92.35735	84.52321	0.2686787	1.93375	82.20128
39.25	86.48317	78.75367	0.2631974	1.937375	82.20128
39.3	80.86652	76.22737	0.2522349	1.9325	82.20128
39.35	80.27265	72.74182	0.2522349	1.92775	82.20128
39.4	83.64355	69.01016	0.2522349	1.931375	82.20128
39.45	84.1209	68.64818	0.2522349	1.9275	82.20128
39.5	81.86006	66.12129	0.2522349	1.93075	82.20128
39.55	79.01516	64.31874	0.2522349	1.931375	82.20128
39.6	76.77318	61.12703	0.2522349	1.935875	82.20128
39.65	75.23931	85.66684	0.2522349	1.936625	82.20128
39.7	74.07194	109.0659	0.2522349	1.938	82.20128
39.75	72.97847	98.59386	0.2522349	1.933375	82.20128
39.8	71.7964	97.93555	0.2522349	1.936625	82.20128
39.85	70.62827	93.36179	0.2522349	1.938	82.20128
39.9	82.05727	79.95584	0.2522349	1.93625	82.20128
39.95	105.2075	80.31741	0.2522349	1.937875	83.01554
40	102.4369	86.44821	0.2522349	1.938375	84.64407
40.05	95.14909	79.59747	0.2522349	1.93125	84.64407
40.1	89.27604	77.43134	0.2522349	1.93075	84.64407
40.15	83.11491	74.18511	0.2522349	1.937125	84.64407
40.2	82.11232	71.78007	0.2522349	1.93825	84.64407
40.25	85.46926	69.25197	0.2522349	1.9395	84.64407
40.3	86.00091	66.66315	0.2522349	1.93925	84.64407
40.35	83.47538	64.49742	0.2522349	1.937375	84.64407
40.4	80.53848	61.54922	0.2522349	1.92975	84.64407
40.45	78.33835	66.96369	0.2491027	1.93025	84.64407
40.5	76.89836	101.6046	0.2428384	1.925875	84.64407
40.55	75.77926	102.536	0.2428384	1.9245	84.64407
40.6	74.20391	98.0533	0.2428384	1.926625	84.64407
40.65	72.58105	98.23319	0.2428384	1.929125	84.64407
40.7	78.61888	84.76472	0.2428384	1.93225	84.64407
40.75	105.5204	80.19775	0.2428384	1.932125	85.04269
40.8	105.1977	83.44379	0.2428384	1.928375	85.83991
40.85	100.4249	82.72245	0.2428384	1.924	85.83991
40.9	93.79356	79.05541	0.2428384	1.922625	85.83991
40.95	86.80932	79.29393	0.2428384	1.924625	85.83991
41	83.89655	71.53915	0.2428384	1.926875	85.83991
41.05	86.71921	69.01126	0.234225	1.933375	85.83991
41.1	87.78138	66.3634	0.2169981	1.928375	85.83991
41.15	85.38518	63.47553	0.2169981	1.93075	85.83991
41.2	82.27143	61.66738	0.2169981	1.93225	85.83991
41.25	79.77229	60.70602	0.2169981	1.932875	85.83991
41.3	78.00804	58.53509	0.2169981	1.9335	85.83991
41.35	76.84293	55.64303	0.2169981	1.931125	85.83991
41.4	75.68914	76.73371	0.2169981	1.93225	85.83991
41.45	74.11869	104.9133	0.2169981	1.931875	85.83991
41.5	73.43282	93.84262	0.2295267	1.931625	85.83991
41.55	90.97053	93.96257	0.254584	1.9305	85.83991
41.6	108.2635	89.51196	0.254584	1.92975	85.57106
41.65	105.4499	80.49689	0.254584	1.930875	85.03337
41.7	98.36426	76.34913	0.254584	1.9305	85.03337
41.75	91.52707	78.75667	0.254584	1.9335	85.03337
41.8	84.97343	79.80597	0.254584	1.92975	85.03337
41.85	85.46662	75.47752	0.254584	1.928125	85.03337
41.9	88.35941	73.82594	0.254584	1.929	85.03337
41.95	87.61623	67.68553	0.254584	1.929125	85.03337
42	84.79094	64.85799	0.254584	1.9245	85.03337
42.05	81.80388	64.13945	0.254584	1.931875	85.03337
42.1	79.64032	61.66778	0.254584	1.935125	85.03337
42.15	78.05819	60.6441	0.2530179	1.934875	85.03337
42.2	76.51037	59.62121	0.2498858	1.932	85.03337
42.25	75.33319	57.99704	0.2498858	1.934375	85.03337
42.3	74.62055	57.39256	0.2498858	1.929875	85.03337
42.35	73.91621	54.62444	0.2498858	1.931125	85.03337
42.4	72.77825	57.45438	0.2498858	1.931875	85.03337
42.45	74.84302	96.43385	0.2498858	1.935125	85.03337
42.5	100.9117	99.92099	0.2498858	1.933625	84.65854
42.55	106.3066	93.87073	0.2498858	1.9305	83.90888
42.6	103.1389	91.10642	0.2498858	1.928875	83.90888
42.65	96.17242	84.34352	0.2498858	1.932	83.90888
42.7	89.33976	75.26832	0.2498858	1.932375	83.90888
42.75	84.81394	79.95604	0.2498858	1.927875	83.90888
42.8	86.54576	79.83828	0.2498858	1.9295	83.90888
42.85	88.42351	78.27514	0.2498858	1.934875	83.90888
42.9	86.82629	74.24744	0.2498858	1.936625	83.90888
42.95	84.25664	74.45593	0.2506688	1.932875	83.90888
43	81.35443	68.82927	0.2522349	1.933625	83.90888
43.05	79.30475	66.90596	0.2522349	1.928875	83.90888
43.1	77.77163	62.81432	0.2522349	1.929125	83.90888
43.15	76.39084	60.16657	0.2522349	1.928375	83.90888
43.2	75.15259	60.2247	0.2522349	1.931125	83.90888
43.25	74.09984	57.21137	0.2522349	1.93	83.90888
43.3	73.63003	59.07975	0.2522349	1.932125	83.90888
43.35	73.30085	55.88564	0.2522349	1.931125	83.90888
43.4	72.46265	55.10958	0.2522349	1.926	83.90888
43.45	71.6335	90.6602	0.2522349	1.92575	83.90888
43.5	87.08609	105.279	0.2639805	1.932	83.90888
43.55	106.388	88.79302	0.2874717	1.93125	83.37437
43.6	103.7294	88.37102	0.2874717	1.931375	82.30534
43.65	96.44993	83.32403	0.2874717	1.9295	82.30534
43.7	90.66964	73.10149	0.2874717	1.927375	82.30534
43.75	84.46554	76.22947	0.2874717	1.930875	82.30534
43.8	83.35962	78.21501	0.2874717	1.930375	82.30534
43.85	85.62159	75.26852	0.2874717	1.92975	82.30534
43.9	86.11026	73.16222	0.2874717	1.932125	82.30534
43.95	83.95198	71.32905	0.2874717	1.932625	82.30534
44	80.89291	66.06126	0.2874717	1.928125	82.30534
44.05	78.33043	64.49892	0.2874717	1.93225	82.30534
44.1	76.50321	61.85137	0.2874717	1.935125	82.30534
44.15	75.24647	60.16457	0.2874717	1.930875	82.30534
44.2	73.93242	60.16617	0.2874717	1.927625	82.30534
44.25	72.79333	58.71758	0.2874717	1.929625	82.30534
44.3	72.11878	54.92439	0.2874717	1.929125	82.30534
44.35	71.724	80.37564	0.2874717	1.926375	82.30534
44.4	71.03398	108.3447	0.2874717	1.9295	82.30534
44.45	70.00311	95.95041	0.2874717	1.924375	82.30534
44.5	78.66639	94.08713	0.2874717	1.92675	82.30534
44.55	103.2619	90.59588	0.2874717	1.927875	82.10509
44.6	101.4908	82.54076	0.2874717	1.9285	81.70458
44.65	94.12085	78.57348	0.2874717	1.933	81.70458
44.7	87.50801	84.28349	0.2874717	1.932125	81.70458
44.75	81.83895	81.60972	0.2874717	1.928125	81.70458
44.8	80.16444	76.95292	0.2874717	1.9275	81.70458
44.85	83.61866	74.42392	0.2874717	1.925875	81.70458
44.9	85.26641	70.93947	0.2827734	1.9285	81.70458
44.95	83.14546	68.16856	0.273377	1.931	81.70458
45	80.11919	65.70089	0.273377	1.9305	81.70458
45.05	77.58385	62.81202	0.273377	1.93125	81.70458
45.1	75.91462	60.16357	0.273377	1.93525	81.70458
45.15	74.55269	60.16497	0.273377	1.94025	81.70458
45.2	73.29972	60.28442	0.273377	1.93675	81.70458
45.25	72.39441	60.76375	0.273377	1.93125	81.70458
45.3	71.52793	99.14313	0.273377	1.94025	81.70458
45.35	70.47367	106.4809	0.273377	1.93125	81.70458
45.4	73.69752	92.64135	0.273377	1.932	81.70458
45.45	99.9611	92.76001	0.273377	1.9325	81.81953
45.5	103.5096	88.97391	0.273377	1.923125	82.04944
45.55	98.57805	75.26652	0.273377	1.92575	82.04944
45.6	91.07913	79.95754	0.273377	1.931125	82.04944
45.65	85.56993	84.04417	0.273377	1.929125	82.04944
45.7	81.01546	77.31128	0.273377	1.930125	82.04944
45.75	82.79404	76.83036	0.273377	1.930875	82.04944
45.8	85.54354	74.36609	0.273377	1.93375	82.04944
45.85	84.02589	70.39481	0.273377	1.932625	82.04944
45.9	81.13197	66.63183	0.273377	1.935125	82.04944
45.95	78.31572	64.19958	0.273377	1.93125	82.04944
46	76.30676	62.57341	0.273377	1.928	82.04944
46.05	74.81889	60.82798	0.273377	1.92925	82.04944
46.1	73.4464	61.12922	0.273377	1.929125	82.04944
46.15	72.49583	60.6474	0.273377	1.930875	82.04944
46.2	71.66292	56.07063	0.273377	1.928375	82.04944
46.25	70.70293	61.36623	0.2827735	1.931	82.04944
46.3	69.86661	103.8045	0.3015664	1.929125	82.04944
46.35	83.68691	102.3893	0.3015664	1.92925	82.04944
46.4	104.8896	95.58544	0.3015664	1.926625	81.70251
46.45	102.07	93.06384	0.3015664	1.932375	81.00866
46.5	94.45002	88.25066	0.3015664	1.927375	81.00866
46.55	88.68971	76.7109	0.3015664	1.923875	81.00866
46.6	83.08098	79.29682	0.3015664	1.93225	81.00866
46.65	81.32879	79.17587	0.3015664	1.934	81.00866
46.7	83.90108	78.6034	0.3015664	1.93175	81.00866
46.75	84.8128	73.58392	0.3015664	1.93425	81.00866
46.8	82.45318	72.38045	0.3015664	1.92925	81.00866
46.85	79.70518	69.25377	0.3015664	1.93225	81.00866
46.9	77.26788	64.55935	0.3015664	1.928	81.00866
46.95	75.57413	61.30901	0.3015664	1.9305	81.00866
47	74.04592	59.3811	0.3015664	1.930625	81.00866
47.05	72.63799	58.23916	0.3015664	1.935375	81.00866
47.1	71.44762	56.18889	0.3015664	1.936125	81.00866
47.15	70.64863	55.10927	0.3015664	1.936125	81.00866
47.2	70.08568	55.53168	0.3015664	1.937375	81.00866
47.25	69.2916	60.64459	0.3015664	1.939125	81.00866
47.3	68.99071	103.08	0.3015664	1.933625	81.00866
47.35	87.67165	100.1595	0.3015664	1.934875	81.00866
47.4	103.1815	89.93367	0.3015664	1.9365	80.51566
47.45	100.3442	88.01055	0.3015664	1.940375	79.52965
47.5	92.48857	81.58101	0.3015664	1.93925	79.52965
47.55	87.01482	70.63473	0.3015664	1.9345	79.52965
47.6	81.67418	77.07257	0.3015664	1.937	79.52965
47.65	80.27115	77.31088	0.3015664	1.94275	79.52965
47.7	82.36457	73.64415	0.3015664	1.929625	79.52965
47.75	83.11453	71.59918	0.3015664	1.93175	79.52965
47.8	81.15308	70.51617	0.3015664	1.939	79.52965
47.85	78.36512	67.74496	0.3015664	1.940625	79.52965
47.9	75.85844	65.57743	0.3015664	1.934	79.52965
47.95	74.14508	62.33029	0.2992173	1.942	79.52965
48	72.6214	59.31857	0.294519	1.934375	79.52965
48.05	71.37673	60.16487	0.294519	1.926375	79.52965
48.1	70.20257	56.12566	0.294519	1.922	79.52965
48.15	69.26521	56.79187	0.294519	1.927	79.52965
48.2	68.3384	92.88576	0.294519	1.9285	79.52965
48.25	67.37728	108.5263	0.294519	1.930875	79.52965
48.3	66.91387	94.68611	0.294519	1.929375	79.52965
48.35	82.85097	91.6799	0.294519	1.93225	79.52965
48.4	101.0836	88.85245	0.294519	1.93325	79.40177
48.45	98.48266	75.68842	0.294519	1.93375	79.14603
48.5	89.93702	77.00864	0.294519	1.930625	79.14603
48.55	84.10507	82.54216	0.294519	1.933375	79.14603
48.6	78.94579	78.09426	0.294519	1.928	79.14603
48.65	77.49826	74.72816	0.294519	1.92825	79.14603
48.7	80.27642	75.38958	0.294519	1.93425	79.14603
48.75	81.59349	71.17779	0.294519	1.935375	79.14603
48.8	79.78436	67.44641	0.294519	1.938	79.14603
48.85	77.00846	62.36111	0.294519	1.940375	79.14603
48.9	74.725	62.69476	0.294519	1.929375	79.14603
48.95	73.10742	61.60965	0.294519	1.93375	79.14603
49	71.69572	59.20161	0.294519	1.931875	79.14603
49.05	70.59886	62.69186	0.294519	1.935	79.14603
49.1	69.7222	104.0731	0.294519	1.929125	79.14603
49.15	68.94433	112.1326	0.294519	1.932625	79.14603
49.2	67.8026	101.0001	0.294519	1.928	79.14603
49.25	73.79405	98.38277	0.294519	1.940875	79.14603
49.3	98.69607	92.51789	0.294519	1.938125	78.98679
49.35	98.52639	80.97832	0.294519	1.938	78.66832
49.4	91.98105	81.45905	0.294519	1.936875	78.66832
49.45	85.05186	86.74865	0.294519	1.936	78.66832
49.5	79.3598	81.15951	0.294519	1.940625	78.66832
49.55	76.27169	77.37322	0.294519	1.9365	78.66832
49.6	78.53253	76.41106	0.2921699	1.93475	78.66832
49.65	81.03356	71.78167	0.2874717	1.93675	78.66832
49.7	79.8922	69.07339	0.2874717	1.93525	78.66832
49.75	77.28824	67.14377	0.2874717	1.938375	78.66832
49.8	74.76497	62.39092	0.2874717	1.9425	78.66832
49.85	72.93058	61.55022	0.2874717	1.942375	78.66832
49.9	71.18556	61.54732	0.2874717	1.938125	78.66832
49.95	69.91827	57.45208	0.2874717	1.936125	78.66832
50	68.94583	57.81415	0.2874717	1.938375	78.66832
50.05	67.99641	97.27694	0.2874717	1.9415	78.66832
50.1	67.13822	110.3902	0.2874717	1.938625	78.66832
50.15	80.27303	98.95533	0.2874717	1.938125	78.66832
50.2	100.9686	95.58624	0.2874717	1.935875	78.60697
50.25	99.22848	88.97181	0.2874717	1.929	78.48425
50.3	92.07154	77.61283	0.2898208	1.93675	78.48425
50.35	86.63512	81.75969	0.294519	1.9335	78.48425
50.4	81.44568	84.1049	0.294519	1.930875	78.48425
50.45	78.72822	79.89751	0.294519	1.9315	78.48425
50.5	80.02379	76.77203	0.294519	1.929375	78.48425
50.55	81.37215	75.80938	0.294519	1.935375	78.48425
50.6	79.97779	71.86861	0.294519	1.934875	78.48425
50.65	77.25921	69.67397	0.294519	1.936	78.48425
50.7	74.43768	67.17439	0.294519	1.931125	78.48425
50.75	72.21003	65.57773	0.294519	1.931125	78.48425
50.8	70.62601	63.83791	0.294519	1.932375	78.48425
50.85	69.43978	59.98248	0.294519	1.938375	78.48425
50.9	68.53107	75.92783	0.294519	1.930625	78.48425
50.95	67.91873	112.737	0.294519	1.927375	78.48425
51	67.06357	105.7562	0.294519	1.9275	78.48425
51.05	66.1164	101.6924	0.294519	1.926125	78.48425
51.1	77.26901	100.0392	0.294519	1.934	78.48425
51.15	99.0818	91.4979	0.294519	1.9385	78.60657
51.2	97.04342	82.36118	0.2992173	1.93575	78.85122
51.25	89.62067	89.21162	0.3086138	1.93475	78.85122
51.3	83.7906	84.9437	0.3086138	1.943	78.85122
51.35	78.62302	80.85857	0.3086138	1.93275	78.85122
51.4	76.43684	78.1813	0.3086138	1.939375	78.85122
51.45	79.03515	74.40091	0.3086138	1.940375	78.85122
51.5	80.99472	74.09326	0.3086138	1.941375	78.85122
51.55	79.44086	70.39411	0.3086138	1.937625	78.85122
51.6	76.68269	67.38459	0.3086138	1.940875	78.85122
51.65	74.34832	66.7835	0.3086138	1.938625	78.85122
51.7	72.78542	63.35228	0.3086138	1.941875	78.85122
51.75	71.48117	62.75119	0.3086138	1.9385	78.85122
51.8	70.52383	82.53897	0.3086138	1.93125	78.85122
51.85	69.50577	115.2607	0.3086138	1.92975	78.85122
51.9	68.25092	108.1653	0.3086138	1.931125	78.85122
51.95	69.02879	104.0734	0.3086138	1.933625	78.85122
52	91.38982	99.13652	0.3086138	1.926125	78.85122
52.05	100.0256	93.36429	0.3086138	1.931125	79.15882
52.1	96.45409	84.28359	0.3086138	1.93225	79.77402
52.15	89.2142	87.28791	0.3086138	1.930375	79.77402
52.2	84.54962	85.5761	0.3086138	1.933375	79.77402
52.25	79.33981	80.31841	0.3086138	1.933375	79.77402
52.3	79.08002	79.14695	0.3086138	1.931625	79.77402
52.35	81.30956	75.35906	0.3086138	1.932	79.77402
52.4	81.21115	72.68089	0.3086138	1.934625	79.77402
52.45	78.99895	70.33458	0.3086138	1.932875	79.77402
52.5	76.36068	67.14568	0.3086138	1.933625	79.77402
52.55	74.27291	62.87505	0.3086138	1.933	79.77402
52.6	72.62102	62.78391	0.3086138	1.9305	79.77402
52.65	71.33186	61.30791	0.3086138	1.93525	79.77402
52.7	70.31946	59.22892	0.3086138	1.9325	79.77402
52.75	69.41263	72.13164	0.3086138	1.934375	79.77402
52.8	68.26525	110.3915	0.3086138	1.932875	79.77402
52.85	69.81043	105.0951	0.3086138	1.930875	79.77402
52.9	93.8275	95.7091	0.3031325	1.9295	79.5846
52.95	100.8457	93.54527	0.2921699	1.934	79.20578
53	97.69159	89.03224	0.2921699	1.935125	79.20578
53.05	90.70056	76.64978	0.2921699	1.930375	79.20578
53.1	85.78976	86.2061	0.2921699	1.935875	79.20578
53.15	80.21534	83.92082	0.2921699	1.9285	79.20578
53.2	79.09284	78.45353	0.2921699	1.934875	79.20578
53.25	81.10142	77.25096	0.2921699	1.93025	79.20578
53.3	81.57425	76.16955	0.2921699	1.929375	79.20578
53.35	79.35301	73.04156	0.2921699	1.931125	79.20578
53.4	76.4934	70.45504	0.2921699	1.9295	79.20578
53.45	74.13151	67.68763	0.2921699	1.932125	79.20578
53.5	72.52638	65.1015	0.2921699	1.934625	79.20578
53.55	71.31904	64.25621	0.2921699	1.934375	79.20578
53.6	70.22859	59.25974	0.2921699	1.929875	79.20578
53.65	69.45486	77.42754	0.2921699	1.93	79.20578
53.7	68.77578	114.178	0.2921699	1.929875	79.20578
53.75	67.8633	105.9973	0.2921699	1.933125	79.20578
53.8	67.75547	102.6276	0.2921699	1.929875	79.20578
53.85	87.29309	98.77485	0.2921699	1.933125	79.20578
53.9	99.50147	92.16022	0.2921699	1.93925	79.27962
53.95	96.05177	81.66885	0.2921699	1.942875	79.42731
54	88.33754	86.75035	0.2921699	1.9435	79.42731
54.05	83.13527	85.66505	0.2921699	1.936125	79.42731
54.1	77.96317	83.6848	0.2921699	1.938	79.42731
54.15	77.99032	80.32501	0.2921699	1.930125	79.42731
54.2	81.20059	74.60591	0.2921699	1.932	79.42731
54.25	81.49809	72.32293	0.2921699	1.931625	79.42731
54.3	79.30927	69.85485	0.2921699	1.930125	79.42731
54.35	76.57937	69.46357	0.3023494	1.92975	79.42731
54.4	74.47049	64.97935	0.3227085	1.931125	79.42731
54.45	73.12326	63.29535	0.3227085	1.930875	79.42731
54.5	71.84239	60.10254	0.3227085	1.927875	79.42731
54.55	70.77004	59.62261	0.3227085	1.932625	79.42731
54.6	69.8783	57.03109	0.3227085	1.9315	79.42731
54.65	68.86326	75.4444	0.3227085	1.93375	79.42731
54.7	69.17735	114.9316	0.3227085	1.9235	79.42731
54.75	90.76014	106.6574	0.3227085	1.929875	79.42731
54.8	101.317	101.0615	0.3227085	1.92925	79.35418
54.85	98.26811	92.99932	0.3227085	1.93175	79.20791
54.9	91.17452	87.52942	0.3227085	1.928	79.20791
54.95	86.60345	77.67356	0.3227085	1.934	79.20791
55	81.38799	82.84331	0.3227085	1.92825	79.20791
55.05	80.01851	84.5243	0.3227085	1.9245	79.20791
55.1	81.72395	78.6036	0.3227085	1.92925	79.20791
55.15	82.18584	77.24946	0.3227085	1.931375	79.20791
55.2	80.23306	74.90535	0.3227085	1.928375	79.20791
55.25	77.5782	70.21563	0.3227085	1.930625	79.20791
55.3	75.22988	69.55271	0.3227085	1.9305	79.20791
55.35	73.56555	65.82005	0.3227085	1.935375	79.20791
55.4	72.22435	61.66888	0.313312	1.94175	79.20791
55.45	70.93481	61.18605	0.294519	1.941125	79.20791
55.5	69.86284	57.66508	0.294519	1.943375	79.20791
55.55	69.09666	58.5368	0.294519	1.939375	79.20791
55.6	68.58311	82.05853	0.294519	1.935	79.20791
55.65	67.62161	115.2617	0.294519	1.937	79.20791
55.7	68.12159	102.0842	0.294519	1.941625	79.20791
55.75	89.87782	95.46679	0.294519	1.938875	79.20791
55.8	99.69038	90.11375	0.294519	1.948375	79.1046
55.85	96.39564	81.93768	0.294519	1.941125	78.89797
55.9	89.05659	75.83889	0.294519	1.935	78.89797
55.95	84.08018	86.02501	0.294519	1.93075	78.89797
56	79.30475	83.02179	0.294519	1.93125	78.89797
56.05	78.20223	80.73871	0.294519	1.931125	78.89797
56.1	80.28208	77.07137	0.294519	1.928625	78.89797
56.15	81.0969	73.46267	0.294519	1.9335	78.89797
56.2	79.16033	69.85326	0.294519	1.938	78.89797
56.25	76.43647	67.44471	0.2913868	1.929875	78.89797
56.3	74.26687	67.77807	0.2851225	1.930625	78.89797
56.35	72.75864	65.75942	0.2851225	1.932125	78.89797
56.4	71.49965	59.02032	0.2851225	1.929	78.89797
56.45	70.34962	67.32286	0.2851225	1.93675	78.89797
56.5	69.48692	108.5835	0.2851225	1.931875	78.89797
56.55	68.70452	110.388	0.2851225	1.929	78.89797
56.6	67.69325	103.5327	0.2851225	1.92825	78.89797
56.65	70.57699	99.89078	0.2851225	1.9275	78.89797
56.7	94.22417	94.74624	0.2851225	1.926875	78.8611
56.75	97.69649	84.40315	0.2851225	1.93025	78.78737
56.8	92.40675	84.58473	0.2851225	1.932625	78.78737
56.85	85.15894	86.86691	0.2851225	1.935375	78.78737
56.9	79.85299	83.14275	0.2851225	1.93625	78.78737
56.95	75.90293	79.17557	0.2851225	1.938	78.78737
57	77.70187	74.42702	0.2851225	1.936	78.78737
57.05	80.24513	73.70438	0.2827734	1.93125	78.78737
57.1	79.61431	69.61414	0.2780752	1.92875	78.78737
57.15	77.30182	65.40245	0.2780752	1.929375	78.78737
57.2	75.00742	62.99691	0.2780752	1.92875	78.78737
57.25	73.35025	60.46611	0.2780752	1.9265	78.78737
57.3	72.0724	60.34575	0.2780752	1.92875	78.78737
57.35	71.0698	57.33343	0.2780752	1.931625	78.78737
57.4	69.99557	71.04842	0.2780752	1.92975	78.78737
57.45	68.79879	114.4801	0.2780752	1.932	78.78737
57.5	68.38967	108.5213	0.2780752	1.9335	78.78737
57.55	86.55405	101.5434	0.2780752	1.927625	78.78737
57.6	100.2639	96.79011	0.2780752	1.930625	78.78917
57.65	97.86089	91.40816	0.2780752	1.929375	78.79279
57.7	90.79181	78.816	0.2780752	1.9265	78.79279
57.75	85.77845	82.30095	0.2780752	1.93225	78.79279
57.8	80.72512	82.30065	0.2780752	1.934375	78.79279
57.85	78.79006	79.77825	0.2819904	1.938375	78.79279
57.9	80.18668	77.19053	0.2898208	1.937875	78.79279
57.95	80.90272	73.82414	0.2898208	1.938625	78.79279
58	79.33152	70.51517	0.2898208	1.934375	78.79279
58.05	76.82898	68.22718	0.2898208	1.931875	78.79279
58.1	74.50178	66.3622	0.2898208	1.93075	78.79279
58.15	72.84235	60.34245	0.2898208	1.93025	78.79279
58.2	71.54867	58.17413	0.2898208	1.93475	78.79279
58.25	70.28175	57.21017	0.2898208	1.935625	78.79279
58.3	69.16642	56.54926	0.2898208	1.9365	78.79279
58.35	68.35763	55.10697	0.2898208	1.93525	78.79279
58.4	67.47946	101.8482	0.2898208	1.934625	78.79279
58.45	67.24078	110.5692	0.2898208	1.9355	78.79279
58.5	85.24718	93.90095	0.2898208	1.934125	78.79279
58.55	99.48525	90.05532	0.2898208	1.929625	78.47736
58.6	97.12789	88.43145	0.2898208	1.93	77.84652
58.65	89.92495	75.08674	0.2898208	1.933875	77.84652
58.7	84.58921	77.01094	0.2898208	1.931625	77.84652
58.75	79.672	83.50172	0.2898208	1.931	77.84652
58.8	77.4926	79.41629	0.2913868	1.937	77.84652
58.85	78.67996	75.41889	0.294519	1.933875	77.84652
58.9	80.04076	74.42692	0.294519	1.933125	77.84652
58.95	78.75462	70.69696	0.294519	1.929	77.84652
59	76.2781	68.77184	0.294519	1.929375	77.84652
59.05	74.02292	68.65048	0.294519	1.936375	77.84652
59.1	72.35142	65.5206	0.294519	1.930875	77.84652
59.15	71.01815	60.82698	0.294519	1.933	77.84652
59.2	69.73049	56.27983	0.294519	1.93575	77.84652
59.25	68.66945	86.33006	0.294519	1.93325	77.84652
59.3	67.84634	115.3216	0.294519	1.930125	77.84652
59.35	67.04547	106.2997	0.294519	1.936	77.84652
59.4	66.0538	97.93355	0.294519	1.9355	77.84652
59.45	73.90528	94.32365	0.294519	1.941625	77.84652
59.5	95.7407	86.26823	0.294519	1.943875	77.68675
59.55	95.19999	78.21271	0.294519	1.94325	77.36721
59.6	88.57735	86.92674	0.294519	1.94025	77.36721
59.65	82.05538	83.56045	0.294519	1.947375	77.36721
59.7	76.67552	79.17487	0.294519	1.945875	77.36721
59.75	74.07948	79.41558	0.294519	1.944375	77.36721
59.8	76.67137	72.43988	0.294519	1.942125	77.36721
59.85	79.03175	73.64475	0.294519	1.941625	77.36721
59.9	77.98014	68.76914	0.294519	1.940375	77.36721
59.95	75.4301	65.28199	0.294519	1.942625	77.36721
60	73.1768	62.21284	0.294519	1.9435	77.36721
60.05	71.78923	60.28552	0.294519	1.946875	77.36721
60.1	70.74742	59.68004	0.294519	1.944125	77.36721
60.15	69.74068	104.7954	0.294519	1.936875	77.36721
60.2	68.6408	114.5696	0.294519	1.934375	77.36721
60.25	67.40442	103.9546	0.294519	1.930875	77.36721
60.3	70.38658	97.93575	0.294519	1.939125	77.36721
60.35	93.79507	94.32455	0.294519	1.943875	77.6983
60.4	97.56188	85.00463	0.2921699	1.938625	78.36048
60.45	92.93689	83.44329	0.2874717	1.94	78.36048
60.5	86.23205	85.18562	0.2874717	1.945125	78.36048
60.55	81.42796	83.50391	0.2874717	1.942	78.36048
60.6	77.07558	79.50732	0.2874717	1.94	78.36048
60.65	77.21434	75.32795	0.2874717	1.93875	78.36048
60.7	79.30512	72.07991	0.2874717	1.938125	78.36048
60.75	79.04872	67.98647	0.2874717	1.939	78.36048
60.8	76.99753	65.76042	0.2874717	1.93775	78.36048
60.85	74.71708	63.23242	0.2874717	1.931625	78.36048
60.9	72.9434	61.12822	0.2874717	1.934625	78.36048
60.95	71.55319	60.28643	0.2874717	1.931125	78.36048
61	70.39977	60.91702	0.2874717	1.927	78.36048
61.05	69.34853	63.34638	0.2874717	1.930375	78.36048
61.1	68.29277	109.5443	0.2874717	1.929375	78.36048
61.15	67.09787	107.1406	0.2874717	1.926375	78.36048
61.2	75.10394	95.46818	0.2874717	1.928	78.36048
61.25	97.27381	94.26582	0.2874717	1.928	78.26443
61.3	97.83374	86.86771	0.2874717	1.933625	78.07233
61.35	92.37658	73.88526	0.2874717	1.930875	78.07233
61.4	86.3874	80.31621	0.2874717	1.92975	78.07233
61.45	81.60291	83.98494	0.2874717	1.931875	78.07233
61.5	77.75391	80.37894	0.2874717	1.932125	78.07233
61.55	77.8723	78.33377	0.2874717	1.93125	78.07233
61.6	79.61204	73.52359	0.2874717	1.92975	78.07233
61.65	78.97595	72.20037	0.2874717	1.93825	78.07233
61.7	76.83275	68.34914	0.2851225	1.934875	78.07233
61.75	74.59492	68.28861	0.2804243	1.938875	78.07233
61.8	72.84273	63.83781	0.2804243	1.939875	78.07233
61.85	71.49286	62.63214	0.2804243	1.937	78.07233
61.9	70.33718	61.12512	0.2804243	1.931375	78.07233
61.95	69.29801	94.92993	0.2804243	1.936	78.07233
62	68.46811	114.659	0.2804243	1.943375	78.07233
62.05	67.54394	101.5445	0.2804243	1.941125	78.07233
62.1	66.77512	99.61955	0.2804243	1.940625	78.07233
62.15	80.67233	95.55773	0.2804243	1.940125	78.07233
62.2	97.17502	87.8921	0.2804243	1.937625	78.29927
62.25	95.09102	80.0785	0.2804243	1.93775	78.75314
62.3	88.02533	85.60521	0.2960851	1.937375	78.75314
62.35	82.56479	82.72305	0.3274067	1.935	78.75314
62.4	77.66266	80.97902	0.3274067	1.934	78.75314
62.45	76.45344	77.73229	0.3274067	1.934375	78.75314
62.5	79.06946	74.1846	0.3274067	1.933875	78.75314
62.55	80.20214	74.03424	0.3274067	1.939	78.75314
62.6	78.50123	71.95855	0.3274067	1.942625	78.75314
62.65	75.9889	66.54549	0.3274067	1.940875	78.75314
62.7	74.11078	65.16124	0.3274067	1.943375	78.75314
62.75	72.91437	61.42876	0.3274067	1.942125	78.75314
62.8	71.76849	59.32077	0.3274067	1.941875	78.75314
62.85	70.85035	90.60098	0.3274067	1.943125	78.75314
62.9	69.74294	118.9296	0.3274067	1.94475	78.75314
62.95	68.44888	105.0933	0.3274067	1.939125	78.75314
63	74.75705	98.41198	0.3274067	1.945125	78.75314
63.05	97.34582	95.52791	0.3274067	1.943	79.25856
63.1	98.64592	85.12588	0.3274067	1.941125	80.26941
63.15	93.65142	78.54497	0.3274067	1.942875	80.26941
63.2	87.98914	83.38536	0.3274067	1.940875	80.26941
63.25	83.27177	81.82062	0.3274067	1.94175	80.26941
63.3	79.61959	76.94872	0.3250576	1.941125	80.26941
63.35	80.2685	74.18631	0.3203593	1.93875	80.26941
63.4	81.7937	70.87914	0.3203593	1.942375	80.26941
63.45	80.97059	68.22939	0.3203593	1.94	80.26941
63.5	78.7105	64.07532	0.3203593	1.94125	80.26941
63.55	76.46324	61.66918	0.3203593	1.94225	80.26941
63.6	74.6692	61.00817	0.3203593	1.944	80.26941
63.65	73.37287	60.88621	0.3203593	1.94375	80.26941
63.7	72.1233	56.60918	0.3203593	1.94525	80.26941
63.75	71.13994	61.66498	0.3203593	1.9465	80.26941
63.8	70.13885	106.0024	0.3203593	1.943625	80.26941
63.85	69.00617	106.1197	0.3203593	1.944375	80.26941
63.9	73.40756	92.21964	0.3203593	1.95125	80.26941
63.95	97.31227	89.63592	0.3203593	1.947625	80.2994
64	100.6771	86.68683	0.3203593	1.9455	80.35939
64.05	96.5114	73.94589	0.314095	1.94225	80.35939
64.1	89.94984	77.91267	0.3015664	1.944125	80.35939
64.15	84.75436	80.91879	0.3015664	1.944625	80.35939
64.2	80.07394	73.40414	0.3015664	1.94425	80.35939
64.25	79.63957	75.08813	0.3015664	1.936375	80.35939
64.3	81.80087	73.70498	0.3015664	1.932	80.35939
64.35	81.80954	71.2075	0.3015664	1.933125	80.35939
64.4	79.67577	66.84133	0.3015664	1.931	80.35939
64.45	77.16607	64.32144	0.3015664	1.931875	80.35939
64.5	75.27664	61.67088	0.3015664	1.93075	80.35939
64.55	73.87059	59.62211	0.3015664	1.93825	80.35939
64.6	72.595	57.51481	0.3015664	1.94125	80.35939
64.65	71.48683	76.52892	0.3015664	1.93225	80.35939
64.7	70.78739	112.738	0.3015664	1.924625	80.35939
64.75	69.74746	102.2663	0.3015664	1.925875	80.35939
64.8	68.70791	98.77315	0.3015664	1.9265	80.35939
64.85	78.92354	94.68521	0.3015664	1.936	80.35939
64.9	99.1821	87.83257	0.3015664	1.939375	80.35023
64.95	97.9789	78.33447	0.3015664	1.93425	80.33192
65	91.31705	84.28559	0.3015664	1.931875	80.33192
65.05	85.27206	84.76772	0.3015664	1.936125	80.33192
65.1	79.94687	78.75557	0.3015664	1.941375	80.33192
65.15	77.8444	77.01064	0.3015664	1.941	80.33192
65.2	80.32657	72.56264	0.3015664	1.938875	80.33192
65.25	81.94226	69.88607	0.3015664	1.93275	80.33192
65.3	80.47966	66.90336	0.3015664	1.92875	80.33192
65.35	78.02991	65.9435	0.3015664	1.9315	80.33192
65.4	76.00323	61.78724	0.3015664	1.929125	80.33192
65.45	74.43429	59.25934	0.3015664	1.931875	80.33192
65.5	73.22657	55.5872	0.3015664	1.9265	80.33192
65.55	72.09766	53.06371	0.3000003	1.93125	80.33192
65.6	71.14145	68.8902	0.2968681	1.937125	80.33192
65.65	69.8783	115.0825	0.2968681	1.938	80.33192
65.7	70.83037	100.792	0.2968681	1.932	80.33192
65.75	92.66352	95.82946	0.2968681	1.939	80.33192
65.8	101.6481	90.59748	0.2968681	1.933375	80.27639
65.85	98.51659	83.86469	0.2968681	1.940625	80.16535
65.9	91.61719	72.22848	0.2968681	1.9365	80.16535
65.95	86.55179	78.21452	0.2968681	1.93325	80.16535
66	81.49394	83.0242	0.2953021	1.93475	80.16535
66.05	80.38879	77.1328	0.2921699	1.938375	80.16535
66.1	82.12966	72.92291	0.2921699	1.94175	80.16535
66.15	82.42527	72.31972	0.2921699	1.937875	80.16535
66.2	80.5151	69.79433	0.2921699	1.941	80.16535
66.25	78.08685	66.7819	0.2921699	1.937375	80.16535
66.3	76.04847	64.61858	0.2921699	1.936125	80.16535
66.35	74.39017	61.85017	0.2921699	1.94075	80.16535
66.4	72.90683	59.44183	0.2921699	1.94175	80.16535
66.45	71.27228	56.18659	0.2921699	1.9405	80.16535
66.5	70.05778	78.87063	0.2921699	1.9375	80.16535
66.55	69.21468	113.2518	0.2921699	1.933375	80.16535
66.6	68.40778	100.3999	0.2921699	1.937	80.16535
66.65	68.89757	95.82875	0.2921699	1.939375	80.16535
66.7	89.50604	90.17178	0.2921699	1.941125	80.16535
66.75	100.2073	82.59959	0.2921699	1.941125	80.13425
66.8	96.98423	74.96608	0.2921699	1.937625	80.07205
66.85	89.4212	80.22907	0.2929529	1.942375	80.07205
66.9	83.85206	78.69504	0.294519	1.939625	80.07205
66.95	78.94088	77.67376	0.294519	1.934	80.07205
67	77.88889	74.24514	0.294519	1.938125	80.07205
67.05	80.38275	70.27486	0.294519	1.934	80.07205
67.1	81.34727	68.40727	0.294519	1.92775	80.07205
67.15	79.60036	65.15983	0.294519	1.927375	80.07205
67.2	77.10423	60.94424	0.294519	1.92425	80.07205
67.25	75.2691	58.65606	0.294519	1.930375	80.07205
67.3	74.01613	58.59512	0.294519	1.931625	80.07205
67.35	72.85102	58.23635	0.294519	1.929	80.07205
67.4	71.60899	65.69899	0.294519	1.9295	80.07205
67.45	70.50761	109.1274	0.294519	1.931625	80.07205
67.5	69.18037	108.4032	0.294519	1.93125	80.07205
67.55	69.75689	98.89251	0.294519	1.928375	80.07205
67.6	90.71187	95.10591	0.294519	1.933125	80.07205
67.65	99.91924	89.90335	0.294519	1.93175	79.75604
67.7	96.2927	77.25086	0.294519	1.931875	79.124
67.75	88.91406	75.74865	0.294519	1.93175	79.124
67.8	83.33097	82.36278	0.294519	1.93325	79.124
67.85	78.4443	79.35666	0.294519	1.93975	79.124
67.9	78.01068	77.06957	0.2921699	1.9335	79.124
67.95	80.40312	72.50041	0.2874717	1.932625	79.124
68	80.7666	70.27315	0.2874717	1.93725	79.124
68.05	78.87264	65.81825	0.2874717	1.93775	79.124
68.1	76.42968	62.7641	0.2874717	1.9435	79.124
68.15	74.4505	60.82568	0.2874717	1.946125	79.124
68.2	73.00223	59.62171	0.2874717	1.9365	79.124
68.25	71.77679	57.93571	0.2874717	1.94125	79.124
68.3	70.60753	55.5887	0.2898208	1.932	79.124
68.35	69.54875	64.49001	0.294519	1.928	79.124
68.4	68.5224	109.0642	0.294519	1.93175	79.124
68.45	67.66761	110.8419	0.294519	1.9325	79.124
68.5	80.77414	94.56325	0.294519	1.93275	79.124
68.55	100.2367	90.57337	0.294519	1.931	78.87343
68.6	99.43774	85.90766	0.294519	1.926125	78.37228
68.65	92.40071	74.72536	0.294519	1.926875	78.37228
68.7	85.8056	80.31661	0.294519	1.928875	78.37228
68.75	80.19536	81.52018	0.294519	1.92725	78.37228
68.8	76.90477	75.62719	0.294519	1.931625	78.37228
68.85	78.06083	75.11725	0.294519	1.932	78.37228
68.9	80.13427	74.606	0.294519	1.93	78.37228
68.95	79.35037	70.63573	0.294519	1.931625	78.37228
69	76.97792	69.37313	0.294519	1.93475	78.37228
69.05	74.60434	64.31993	0.294519	1.932375	78.37228
69.1	72.92644	61.85057	0.294519	1.94075	78.37228
69.15	71.54791	58.47587	0.294519	1.939875	78.37228
69.2	70.36093	56.24681	0.294519	1.939125	78.37228
69.25	69.32893	74.41922	0.294519	1.934625	78.37228
69.3	68.45717	116.4046	0.294519	1.93975	78.37228
69.35	67.4146	109.1851	0.294519	1.937875	78.37228
69.4	66.65219	99.91729	0.293736	1.935	78.37228
69.45	79.98835	95.58774	0.2921699	1.932875	78.37228
69.5	97.7719	89.32978	0.2921699	1.942875	78.13596
69.55	96.11322	77.7594	0.2921699	1.93625	77.66334
69.6	88.54794	82.66172	0.2921699	1.932125	77.66334
69.65	81.96903	85.30707	0.2921699	1.93175	77.66334
69.7	76.33089	79.41718	0.2921699	1.930375	77.66334
69.75	74.50744	78.21231	0.2921699	1.93375	77.66334
69.8	77.19699	75.59667	0.2921699	1.930625	77.66334
69.85	79.16674	70.75708	0.2921699	1.931	77.66334
69.9	77.99334	69.06788	0.2921699	1.93025	77.66334
69.95	75.5436	64.61818	0.2921699	1.926	77.66334
70	73.45809	62.03105	0.2921699	1.92525	77.66334
70.05	72.00755	60.10284	0.2921699	1.928	77.66334
70.1	70.83716	58.83744	0.2921699	1.92875	77.66334
70.15	69.75802	55.82271	0.2921699	1.9285	77.66334
70.2	68.72752	75.71553	0.2921699	1.929	77.66334
70.25	67.61671	120.167	0.2882547	1.928	77.66334
70.3	67.90818	109.8468	0.2804243	1.930625	77.66334
70.35	88.28362	96.36881	0.2804243	1.92875	77.66334
70.4	99.13195	93.06015	0.2804243	1.936	77.61734
70.45	96.29082	89.8127	0.2804243	1.933125	77.52533
70.5	88.95855	76.04739	0.2804243	1.925125	77.52533
70.55	83.27931	79.53504	0.2804243	1.920625	77.52533
70.6	78.25313	83.684	0.2804243	1.927	77.52533
70.65	76.6891	78.75497	0.2804243	1.92325	77.52533
70.7	78.4771	76.16685	0.2804243	1.926375	77.52533
70.75	79.4107	74.00332	0.2804243	1.921125	77.52533
70.8	77.90548	69.91288	0.2796413	1.92	77.52533
70.85	75.40785	67.26303	0.2780752	1.924625	77.52533
70.9	73.28389	64.61627	0.2780752	1.923375	77.52533
70.95	71.70778	62.93588	0.2780752	1.928	77.52533
71	70.38243	59.28946	0.2780752	1.926375	77.52533
71.05	69.16076	56.66841	0.2780752	1.92725	77.52533
71.1	68.03599	54.92419	0.2780752	1.9315	77.52533
71.15	67.15971	87.8946	0.2780752	1.929125	77.52533
71.2	66.23554	116.5838	0.2780752	1.9335	77.52533
71.25	66.42257	99.13792	0.2780752	1.936125	77.52533
71.3	86.0537	92.39903	0.2780752	1.928125	77.52533
71.35	98.16668	90.23301	0.2780752	1.926375	77.32785
71.4	95.49636	78.72226	0.2780752	1.92475	76.93287
71.45	87.86396	73.70388	0.2780752	1.927	76.93287
71.5	81.9302	83.14105	0.2780752	1.930125	76.93287
71.55	76.91872	80.97982	0.2812074	1.933625	76.93287
71.6	75.03645	77.06797	0.2874717	1.93025	76.93287
71.65	76.99263	75.50583	0.2874717	1.93575	76.93287
71.7	78.57928	72.68049	0.2874717	1.93725	76.93287
71.75	77.39721	70.9975	0.2874717	1.938125	76.93287
71.8	75.0602	68.22819	0.2874717	1.93875	76.93287
71.85	72.90909	67.74806	0.2874717	1.93575	76.93287
71.9	71.39596	62.57471	0.2874717	1.937125	76.93287
71.95	70.11396	64.49662	0.2874717	1.936625	76.93287
72	68.96808	107.4994	0.2874717	1.93775	76.93287
72.05	67.99113	115.563	0.2874717	1.937875	76.93287
72.1	67.06206	102.2054	0.2874717	1.92975	76.93287
72.15	66.00969	98.59287	0.2874717	1.925625	76.93287
72.2	68.23847	96.85054	0.2874717	1.924375	76.93287
72.25	90.10782	82.78008	0.2874717	1.924125	77.12419
72.3	95.73089	87.41137	0.2890377	1.922625	77.50682
72.35	91.19074	91.85878	0.2921699	1.93125	77.50682
72.4	83.87506	86.56576	0.2921699	1.931375	77.50682
72.45	78.09213	86.2059	0.2921699	1.930375	77.50682
72.5	73.73824	82.60129	0.2921699	1.932	77.50682
72.55	74.42185	78.99558	0.2921699	1.928375	77.50682
72.6	77.60044	81.03535	0.2921699	1.926625	77.50682
72.65	77.98052	75.26602	0.2921699	1.92275	77.50682
72.7	76.03339	72.53073	0.2921699	1.9215	77.50682
72.75	73.56441	71.8388	0.2921699	1.922875	77.50682
72.8	71.81563	114.2383	0.2921699	1.930125	77.50682
72.85	70.7904	116.0424	0.2921699	1.928625	77.50682
72.9	70.05288	108.7637	0.2921699	1.93675	77.50682
72.95	69.02502	108.0409	0.2921699	1.93425	77.50682
73	67.71814	101.063	0.2921699	1.93425	77.50682
73.05	76.61632	89.03143	0.2921699	1.939625	77.50682
73.1	97.01514	92.21825	0.2921699	1.936375	78.90017
73.15	97.50683	92.93958	0.2921699	1.937375	81.68687
73.2	91.75255	90.65671	0.2921699	1.935625	81.68687
73.25	85.98319	90.65801	0.2921699	1.938	81.68687
73.3	80.51058	85.18392	0.2921699	1.932875	81.68687
73.35	78.29385	83.50372	0.2827734	1.938875	81.68687
73.4	80.59805	80.73711	0.2639805	1.936625	81.68687
73.45	82.31555	76.88989	0.2639805	1.939	81.68687
73.5	80.91101	72.19977	0.2639805	1.93525	81.68687
73.55	78.48351	75.89702	0.2639805	1.932625	81.68687
73.6	76.34409	109.7858	0.2639805	1.930625	81.68687
73.65	75.03042	116.5284	0.2639805	1.930375	81.68687
73.7	74.17148	110.3582	0.2639805	1.93	81.68687
73.75	72.96112	108.7641	0.2639805	1.93625	81.68687
73.8	71.85748	102.3863	0.2639805	1.93125	81.68687
73.85	84.10658	90.23551	0.2639805	1.928125	81.68687
73.9	101.4124	90.77436	0.2639805	1.92825	83.03989
73.95	100.9837	92.09979	0.2639805	1.928875	85.74595
74	95.9262	89.63172	0.2639805	1.926875	85.74595
74.05	91.06405	87.22779	0.2639805	1.924375	85.74595
74.1	84.96664	84.5251	0.2639805	1.922875	85.74595
74.15	83.54249	78.63391	0.2639805	1.9235	85.74595
74.2	85.45531	76.40886	0.2639805	1.924625	85.74595
74.25	85.96321	74.24424	0.2639805	1.925625	85.74595
74.3	84.08848	70.1539	0.2639805	1.927375	85.74595
74.35	81.80577	71.8404	0.2639805	1.932375	85.74595
74.4	79.70292	66.96819	0.2725939	1.92675	85.74595
74.45	78.53479	68.28971	0.2898208	1.927625	85.74595
74.5	77.57707	103.6524	0.2898208	1.92575	85.74595
74.55	76.23851	108.7049	0.2898208	1.92475	85.74595
74.6	75.25138	102.2082	0.2898208	1.93225	85.74595
74.65	85.91231	103.6516	0.2898208	1.928375	85.74595
74.7	105.1287	93.99239	0.2898208	1.929875	86.43544
74.75	105.6803	83.80376	0.2898208	1.929375	87.81443
74.8	101.3464	88.30979	0.2898208	1.9285	87.81443
74.85	95.46469	86.38638	0.2819904	1.932625	87.81443
74.9	89.12031	85.12498	0.2663296	1.92825	87.81443
74.95	87.65959	80.19815	0.2663296	1.930375	87.81443
75	89.1124	78.393	0.2663296	1.928875	87.81443
75.05	89.45476	76.10972	0.2663296	1.929125	87.81443
75.1	87.71577	71.02611	0.2663296	1.930375	87.81443
75.15	85.01981	68.58836	0.2663296	1.929	87.81443
75.2	82.77028	67.26603	0.2663296	1.929875	87.81443
75.25	81.20021	65.34132	0.2663296	1.931625	87.81443
75.3	80.03699	65.46018	0.2663296	1.932625	87.81443
75.35	79.15995	60.16417	0.2663296	1.93225	87.81443
75.4	78.51745	77.36661	0.2663296	1.934125	87.81443
75.45	77.49298	103.1085	0.2663296	1.927	87.81443
75.5	76.67099	94.26532	0.2663296	1.928125	87.81443
75.55	86.79274	94.32394	0.2663296	1.932	87.81443
75.6	107.5113	90.41449	0.2663296	1.93075	88.18591
75.65	108.2967	78.63451	0.2491027	1.92925	88.92887
75.7	103.9164	80.79814	0.214649	1.930875	88.92887
75.75	97.09924	80.67848	0.214649	1.929875	88.92887
75.8	90.17344	75.56826	0.214649	1.928875	88.92887
75.85	88.78812	76.289	0.214649	1.93225	88.92887
75.9	90.9694	73.82333	0.214649	1.932125	88.92887
75.95	91.37323	69.97341	0.214649	1.932375	88.92887
76	89.42724	65.73211	0.214649	1.928625	88.92887
76.05	86.58988	65.12932	0.214649	1.937625	88.92887
76.1	84.06058	63.56258	0.214649	1.92875	88.92887
76.15	82.49088	61.96912	0.214649	1.933	88.92887
76.2	81.24923	59.01672	0.214649	1.934	88.92887
76.25	80.36352	81.87715	0.214649	1.93175	88.92887
76.3	79.73497	105.395	0.214649	1.932625	88.92887
76.35	78.74934	93.36018	0.214649	1.93075	88.92887
76.4	77.56462	96.06847	0.214649	1.931375	88.92887
76.45	81.13574	90.95675	0.214649	1.9365	88.92887
76.5	104.3074	79.17227	0.235791	1.93675	89.10828
76.55	108.0275	82.54036	0.2780752	1.9315	89.4671
76.6	104.1845	82.83961	0.2780752	1.933875	89.4671
76.65	97.25533	77.79111	0.2780752	1.9285	89.4671
76.7	90.26996	78.03203	0.2780752	1.938	89.4671
76.75	87.9782	72.26139	0.2780752	1.935125	89.4671
76.8	90.8495	67.86571	0.2780752	1.929625	89.4671
76.85	91.94221	68.80036	0.2780752	1.942	89.4671
76.9	89.94833	65.23957	0.2780752	1.93575	89.4671
76.95	86.91905	62.69166	0.2780752	1.943125	89.4671
77	84.16012	61.24478	0.2780752	1.939875	89.4671
77.05	82.43433	57.2699	0.2780752	1.930375	89.4671
77.1	81.32163	59.50025	0.2780752	1.9345	89.4671
77.15	80.52679	93.06615	0.2780752	1.933875	89.4671
77.2	79.46726	99.7377	0.2780752	1.935125	89.4671
77.25	78.15849	93.87333	0.2780752	1.93075	89.4671
77.3	81.16439	96.9708	0.2780752	1.9325	89.4671
77.35	105.0657	89.99519	0.2780752	1.925375	89.54592
77.4	110.1303	78.33437	0.2780752	1.928875	89.70355
77.45	107.506	80.97892	0.2780752	1.932	89.70355
77.5	100.7001	77.67056	0.2780752	1.93125	89.70355
77.55	92.38262	77.31069	0.2725939	1.9355	89.70355
77.6	88.4778	76.41046	0.2616313	1.935	89.70355
77.65	91.02785	72.08121	0.2616313	1.9315	89.70355
77.7	92.28609	69.01086	0.2616313	1.92925	89.70355
77.75	90.58292	68.0499	0.2616313	1.93175	89.70355
77.8	87.49557	61.97162	0.2616313	1.929375	89.70355
77.85	84.54585	40.41902	0.2616313	1.94075	89.70355
77.9	82.68394	59.19781	0.2616313	1.92875	89.70355
77.95	81.16816	61.36834	0.2616313	1.93275	89.70355
78	80.01889	61.99903	0.2616313	1.93325	89.70355
78.05	79.02346	54.3225	0.2616313	1.927875	89.70355
78.1	77.84176	80.25458	0.2616313	1.93225	89.70355
78.15	77.0703	100.8225	0.2616313	1.93975	89.70355
78.2	89.65272	89.63192	0.2616313	1.94675	89.70355
78.25	110.3604	90.2333	0.2616313	1.934375	89.24529
78.3	110.2239	88.3114	0.2616313	1.930375	88.32877
78.35	105.922	72.31752	0.2616313	1.92675	88.32877
78.4	98.93814	73.16362	0.2616313	1.931375	88.32877
78.45	90.70244	74.00462	0.2616313	1.93075	88.32877
78.5	88.71988	74.48645	0.2616313	1.932625	88.32877
78.55	90.8544	70.9934	0.2819904	1.9455	88.32877
78.6	91.66696	68.16786	0.3227085	1.94125	88.32877
78.65	89.71946	67.2042	0.3227085	1.94625	88.32877
78.7	86.37948	65.5223	0.3227085	1.9485	88.32877
78.75	83.42485	60.94564	0.3227085	1.940625	88.32877
78.8	81.53316	57.21117	0.3227085	1.93775	88.32877
78.85	80.09355	57.6936	0.3227085	1.935625	88.32877
78.9	78.80401	55.64243	0.3227085	1.933625	88.32877
78.95	77.78935	51.79491	0.3227085	1.937625	88.32877
79	77.13892	53.23799	0.3227085	1.942875	88.32877
79.05	76.37086	91.2606	0.3227085	1.941875	88.32877
79.1	75.16767	95.82755	0.3227085	1.943	88.32877
79.15	81.3088	87.76744	0.3227085	1.9435	88.32877
79.2	106.0479	85.90526	0.3227085	1.946625	87.81608
79.25	108.4385	78.21241	0.3227085	1.9515	86.79072
79.3	104.4398	66.30437	0.3187933	1.942125	86.79072
79.35	97.85787	80.13592	0.3109628	1.92525	86.79072
79.4	90.02864	72.38155	0.3109628	1.925125	86.79072
79.45	85.94134	69.5209	0.3109628	1.9255	86.79072
79.5	88.03816	67.80739	0.3109628	1.933375	86.79072
79.55	90.47508	64.31843	0.3109628	1.9365	86.79072
79.6	88.89408	64.13975	0.3109628	1.9375	86.79072
79.65	85.59293	59.8031	0.3109628	1.93725	86.79072
79.7	82.46562	57.63267	0.3109628	1.94	86.79072
79.75	80.48154	55.94507	0.3109628	1.93875	86.79072
79.8	79.00913	53.69351	0.3109628	1.9345	86.79072
79.85	77.77992	60.40008	0.3109628	1.93375	86.79072
79.9	76.80938	98.53954	0.3109628	1.932125	86.79072
79.95	76.04055	98.65839	0.3109628	1.92425	86.79072
80	74.73857	89.75428	0.3109628	1.915625	86.79072
80.05	73.90113	90.83419	0.3109628	1.91225	86.79072
80.1	88.59356	82.00051	0.3109628	1.9015	86.79072
80.15	106.9514	72.74012	0.3109628	1.889625	86.37703
80.2	104.5861	77.25116	0.3109628	1.878	85.54963
80.25	96.91636	75.0254	0.2913869	1.864625	85.54963
80.3	89.74925	73.16302	0.2522349	1.849	85.54963
80.35	83.43126	70.51637	0.2522349	1.827	85.54963
80.4	83.71067	67.38489	0.2522349	1.811875	85.54963
80.45	87.3127	64.73934	0.2522349	1.790625	85.54963
80.5	87.80513	62.45325	0.2522349	1.771375	85.54963
80.55	85.20909	57.63307	0.2522349	1.7485	85.54963
80.6	82.0041	56.51804	0.2522349	1.7165	85.54963
80.65	79.61883	56.36767	0.2522349	1.692375	85.54963
80.7	78.03708	50.16883	0.2522349	1.6635	85.54963
80.75	76.74641	68.70181	0.2522349	1.630875	85.54963
80.8	75.70384	102.6288	0.2522349	1.599875	85.54963
80.85	74.47463	94.20438	0.2522349	1.56625	85.54963
80.9	73.63832	88.85185	0.2522349	1.532375	85.54963
80.95	88.52569	88.70098	0.2522349	1.496875	85.54963
81	108.0509	79.26331	0.2522349	1.463875	85.10336
81.05	106.2203	71.4182	0.2522349	1.426125	84.21082
81.1	99.34347	76.52962	0.2522349	1.397375	84.21082
81.15	92.7001	74.24614	0.2522349	1.365	84.21082
81.2	86.00959	71.47802	0.2522349	1.335	84.21082
81.25	84.15484	67.26363	0.2522349	1.314875	84.21082
81.3	86.27881	64.20098	0.2561501	1.29075	84.21082
81.35	86.86739	61.36564	0.2639805	1.250875	84.21082
81.4	84.42594	57.99454	0.2639805	1.22475	84.21082
81.45	80.8307	56.4281	0.2639805	1.187625	84.21082
81.5	77.97222	53.30032	0.2639805	1.159875	84.21082
81.55	76.0711	51.3719	0.2639805	1.13125	84.21082
81.6	74.50593	89.03523	0.2639805	1.104375	84.21082
81.65	73.16134	108.7654	0.2639805	1.076875	84.21082
81.7	72.00227	87.82767	0.2639805	1.05725	84.21082
81.75	70.56153	89.06105	0.2639805	1.034625	84.21082
81.8	71.02041	83.2616	0.2639805	1.00775	84.21082
81.85	92.43729	74.60281	0.2639805	0.978375	84.21082
81.9	104.8048	73.46236	0.2639805	0.9575	83.31259
81.95	101.3604	80.67758	0.2639805	0.929875	81.51613
82	93.1767	72.43778	0.2639805	0.90175	81.51613
82.05	86.657	67.74456	0.2639805	0.878625	81.51613
82.1	80.87066	64.13985	0.2639805	0.856625	81.51613
82.15	80.30168	62.69396	0.2639805	0.836375	81.51613
82.2	82.66584	60.04281	0.254584	0.818	81.51613
82.25	82.46072	54.98502	0.235791	0.791875	81.51613
82.3	79.48837	53.72312	0.235791	0.768375	81.51613
82.35	75.85542	73.93879	0.235791	0.743	81.51613
82.4	73.36269	107.9233	0.235791	0.7275	81.51613
82.45	71.72438	96.73248	0.235791	0.7085	81.51613
82.5	70.75798	92.15912	0.235791	0.688125	81.51613
82.55	69.47447	87.82827	0.235791	0.676125	81.51613
82.6	68.05711	77.48927	0.235791	0.651125	81.51613
82.65	73.3774	76.04599	0.235791	0.631625	81.51613
82.7	98.78619	80.61865	0.235791	0.61475	81.03365
82.75	101.1447	74.63602	0.235791	0.5995	80.0687
82.8	94.58501	67.68543	0.235791	0.584	80.0687
82.85	86.6634	66.24265	0.235791	0.574875	80.0687
82.9	80.3375	65.64276	0.235791	0.5595	80.0687
82.95	76.58503	59.86302	0.235791	0.5505	80.0687
83	78.96238	56.78857	0.235791	0.536	80.0687
83.05	81.10934	54.26597	0.235791	0.522	80.0687
83.1	78.83305	96.82302	0.235791	0.503875	80.0687
83.15	75.05304	110.8726	0.235791	0.488625	80.0687
83.2	72.17006	97.15368	0.2365741	0.48025	80.0687
83.25	70.46613	92.82044	0.2381402	0.462875	80.0687
83.3	69.19319	85.90585	0.2381402	0.454	80.0687
83.35	67.87235	78.09145	0.2381402	0.441	80.0687
83.4	69.40057	75.26692	0.2381402	0.432375	80.0687
83.45	93.7913	80.55822	0.2381402	0.4165	80.07451
83.5	102.835	73.46307	0.2381402	0.404375	80.08613
83.55	98.15574	65.94031	0.2381402	0.396	80.08613
83.6	88.76852	61.54842	0.2381402	0.3835	80.08613
83.65	81.80615	58.29488	0.2381402	0.37675	80.08613
83.7	76.84444	55.94597	0.2381402	0.363375	80.08613
83.75	78.25878	53.78074	0.2381402	0.354125	80.08613
83.8	80.42159	50.59323	0.2381402	0.34175	80.08613
83.85	78.44958	84.40594	0.2404893	0.33275	80.08613
83.9	74.48746	110.9298	0.2451875	0.318125	80.08613
83.95	71.30848	93.42091	0.2451875	0.31325	80.08613
84	69.32968	89.09016	0.2451875	0.298	80.08613
84.05	68.1065	83.6839	0.2451875	0.28975	80.08613
84.1	66.76795	73.88056	0.2451875	0.28575	80.08613
84.15	71.43517	71.74845	0.2451875	0.27725	80.08613
84.2	99.13911	76.55803	0.2451875	0.27025	79.53151
84.25	101.6081	69.43005	0.2451875	0.265	78.42227
84.3	94.88364	62.66255	0.2451875	0.257	78.42227
84.35	86.13628	60.46391	0.2451875	0.251625	78.42227
84.4	79.6852	55.70806	0.2451875	0.243	78.42227
84.45	76.01002	51.97629	0.2451875	0.23625	78.42227
84.5	77.56198	51.25295	0.2451875	0.230875	78.42227
84.55	78.64602	46.79584	0.2451875	0.224	78.42227
84.6	76.01906	67.31755	0.2451875	0.21875	78.42227
84.65	72.08711	110.6307	0.2451875	0.2145	78.42227
84.7	69.06687	96.22084	0.2451875	0.209375	78.42227
84.75	67.1748	82.29985	0.2451875	0.203125	78.42227
84.8	66.11225	75.92573	0.2451875	0.198125	78.42227
84.85	64.98862	66.42403	0.2467536	0.2015	78.42227
84.9	68.00281	62.63234	0.2498858	0.188625	78.42227
84.95	96.26631	69.97491	0.2498858	0.186375	77.83195
85	100.8996	67.08434	0.2498858	0.18075	76.65132
85.05	94.63063	57.33123	0.2498858	0.17375	76.65132
85.1	84.97343	54.68117	0.2498858	0.17175	76.65132
85.15	78.08723	51.85393	0.2498858	0.172	76.65132
85.2	74.26386	49.14375	0.2498858	0.174125	76.65132
85.25	75.74758	46.97973	0.2498858	0.15825	76.65132
85.3	77.18945	43.85084	0.2498858	0.151125	76.65132
85.35	75.17219	46.5011	0.2498858	0.150375	76.65132
85.4	71.45139	97.27564	0.2498858	0.151	76.65132
85.45	68.0409	103.6787	0.2498858	0.14425	76.65132
85.5	65.77667	73.87436	0.2498858	0.143125	76.65132
85.55	64.40644	66.54339	0.2498858	0.137875	76.65132
85.6	63.37556	60.94794	0.2498858	0.134875	76.65132
85.65	63.48868	53.71902	0.2498858	0.131375	76.65132
85.7	86.38891	68.43759	0.2506688	0.134125	76.65132
85.75	98.40159	63.65432	0.2522349	0.12675	75.26716
85.8	93.18801	55.82621	0.2522349	0.120375	72.49882
85.85	81.85969	51.61262	0.2522349	0.117375	72.49882
85.9	73.78688	50.04838	0.2522349	0.112875	72.49882
85.95	68.88325	46.918	0.2522349	0.107375	72.49882
86	69.95673	43.79331	0.2522349	0.111625	72.49882
86.05	73.03729	38.73922	0.2522349	0.10875	72.49882
86.1	72.26244	60.63989	0.2522349	0.105875	72.49882
86.15	69.31045	106.2961	0.2522349	0.1015	72.49882
86.2	66.10508	95.04739	0.2522349	0.102375	72.49882
86.25	63.55655	68.10813	0.2522349	0.0985	72.49882
86.3	61.93332	61.33782	0.255367	0.095	72.49882
86.35	60.77801	49.50402	0.2616313	0.092125	72.49882
86.4	59.80068	55.64603	0.2616313	0.090125	72.49882
86.45	67.80637	65.5186	0.2616313	0.0915	72.49882
86.5	92.61941	60.94474	0.2616313	0.091	71.39711
86.55	90.79445	52.90713	0.2616313	0.092125	69.1937
86.6	81.23528	49.83778	0.2616313	0.08425	69.1937
86.65	71.21686	47.15701	0.2616313	0.087375	69.1937
86.7	64.19755	44.33637	0.2616313	0.080625	69.1937
86.75	63.08334	43.01214	0.2616313	0.085375	69.1937
86.8	67.35239	41.62499	0.2616313	0.078125	69.1937
86.85	69.81156	89.51567	0.2616313	0.075375	69.1937
86.9	68.07785	106.5384	0.2616313	0.07375	69.1937
86.95	64.91547	77.66895	0.2616313	0.0705	69.1937
87	62.0668	62.03105	0.2616313	0.066875	69.1937
87.05	60.16077	54.3223	0.2616313	0.065125	69.1937
87.1	58.79167	49.08682	0.2616313	0.06275	69.1937
87.15	57.73252	61.12632	0.2498858	0.063125	69.1937
87.2	68.33274	62.20933	0.2263946	0.058875	69.1937
87.25	89.19421	56.55076	0.2263946	0.06675	68.25893
87.3	86.60006	51.12809	0.2263946	0.06725	66.38941
87.35	77.07822	50.64976	0.2263946	0.064	66.38941
87.4	67.36295	48.00161	0.2263946	0.05825	66.38941
87.45	60.9541	44.15509	0.2263946	0.059875	66.38941
87.5	59.82217	41.8671	0.2263946	0.06125	66.38941
87.55	63.05167	87.95113	0.2263946	0.05375	66.38941
87.6	65.4392	107.3204	0.2263946	0.051125	66.38941
87.65	64.28352	78.36119	0.2263946	0.0555	66.38941
87.7	61.78513	64.07622	0.2263946	0.053375	66.38941
87.75	59.46661	57.33193	0.2263946	0.053	66.38941
87.8	57.65899	50.16753	0.2263946	0.0555	66.38941
87.85	56.36304	62.09178	0.2263946	0.054375	66.38941
87.9	56.96596	65.82075	0.2263946	0.052	66.38941
87.95	78.46919	58.35801	0.2263946	0.051875	66.38941
88	85.58879	54.86326	0.2263946	0.045375	66.11988
88.05	81.11953	52.2131	0.2326589	0.042375	65.58082
88.1	70.80021	52.39469	0.2451875	0.041625	65.58082
88.15	62.14409	45.89711	0.2451875	0.0345	65.58082
88.2	58.20723	49.32704	0.2451875	0.033625	65.58082
88.25	59.32144	99.01996	0.2451875	0.031875	65.58082
88.3	63.00567	100.402	0.2451875	0.0345	65.58082
88.35	64.19453	75.8663	0.2451875	0.0385	65.58082
88.4	62.63728	62.75259	0.2451875	0.036375	65.58082
88.45	60.23505	53.84007	0.2451875	0.02975	65.58082
88.5	58.24494	55.46364	0.2451875	0.027875	65.58082
88.55	56.69297	65.33762	0.2451875	0.030125	65.58082
88.6	57.46518	63.99248	0.2451875	0.028625	65.58082
88.65	78.92467	57.99454	0.2451875	0.024375	65.54581
88.7	84.92517	55.34199	0.2451875	0.022625	65.47578
88.75	80.10674	54.26347	0.2451875	0.02525	65.47578
88.8	69.76858	49.02299	0.2451875	0.023125	65.47578
88.85	61.47745	44.69384	0.2451875	0.01925	65.47578
88.9	57.91011	75.16777	0.2451875	0.01675	65.47578
88.95	59.60084	101.4247	0.2451875	0.028	65.47578
89	63.54788	81.3573	0.2444045	0.023875	65.47578
89.05	64.47243	59.67914	0.2428384	0.02225	65.47578
89.1	62.40916	50.88857	0.2428384	0.02225	65.47578
89.15	59.86138	48.36538	0.2428384	0.0255	65.47578
89.2	57.74269	59.74107	0.2428384	0.021875	65.47578
89.25	56.17791	60.94564	0.2428384	0.020125	65.47578
89.3	61.28591	53.0616	0.2428384	0.023125	65.47578
89.35	84.2985	52.46032	0.2428384	0.018	65.29913
89.4	83.49838	50.37933	0.2428384	0.0175	64.94584
89.45	75.90858	47.22014	0.2428384	0.014375	64.94584
89.5	65.78798	42.46889	0.2428384	0.0145	64.94584
89.55	59.11481	46.80114	0.2428384	0.012125	64.94584
89.6	57.84111	88.49378	0.2428384	0.00125	64.94584
89.65	61.03026	84.5242	0.234225	0.003625	64.94584
89.7	64.05577	60.10244	0.2169981	0.003375	64.94584
89.75	63.64478	45.89671	0.2169981	0.005125	64.94584
89.8	61.35717	41.32325	0.2169981	-0.000375	64.94584
89.85	59.02394	53.83737	0.2169981	-0.000875	64.94584
89.9	57.04552	58.1133	0.2169981	-0.002	64.94584
89.95	56.06064	55.82731	0.2169981	-0.0015	64.94584
90	68.1378	50.82975	0.2169981	-0.00175	64.94584
90.05	80.20365	49.38466	0.2169981	-0.000125	63.97089
90.1	76.26905	47.81762	0.2169981	0.001375	62.02098
90.15	67.71776	44.09326	0.2169981	0.005875	62.02098
90.2	59.54126	44.51326	0.2169981	0.005625	62.02098
90.25	55.82385	86.86961	0.214649	0.008875	62.02098
90.3	56.41281	92.16012	0.2099507	0.002875	62.02098
90.35	59.39798	65.57623	0.2099507	-0.003875	62.02098
90.4	61.02008	49.62948	0.2099507	-0.00425	62.02098
90.45	60.19508	42.88789	0.2099507	0.00025	62.02098
90.5	58.28528	57.63147	0.2099507	-0.000875	62.02098
90.55	56.47427	60.64329	0.2099507	0.004875	62.02098
90.6	54.87593	55.28396	0.2099507	0.0015	62.02098
90.65	56.63792	54.08289	0.2099507	-0.00825	62.02098
90.7	71.5366	52.09685	0.2099507	-0.003375	61.40541
90.75	73.785	49.92712	0.2099507	-0.008625	60.17426
90.8	68.76635	45.47341	0.2099507	-0.007625	60.17426
90.85	60.68601	56.78767	0.2099507	-0.006625	60.17426
90.9	55.55501	98.35575	0.2099507	-0.002875	60.17426
90.95	54.23644	87.53233	0.2099507	-0.000875	60.17426
91	56.05838	64.61918	0.2099507	-0.001125	60.17426
91.05	58.40217	54.38413	0.2099507	-0.002125	60.17426
91.1	59.07899	50.40905	0.2099507	-0.008875	60.17426
91.15	57.9908	60.16257	0.2193472	-0.00475	60.17426
91.2	56.32798	64.49892	0.2381402	-0.011125	60.17426
91.25	54.661	60.52074	0.2381402	-0.008375	60.17426
91.3	55.33782	58.17212	0.2381402	-0.008125	60.17426
91.35	68.66606	56.0021	0.2381402	-0.010625	60.17426
91.4	73.26654	52.03462	0.2381402	-0.01425	60.12733
91.45	68.86251	49.14385	0.2381402	-0.016	60.03347
91.5	61.03328	81.03355	0.2381402	-0.015875	60.03347
91.55	55.42605	98.47571	0.2381402	-0.015625	60.03347
91.6	53.80885	73.88196	0.2381402	-0.016375	60.03347
91.65	55.42907	62.32889	0.2381402	-0.018625	60.03347
91.7	57.92293	55.76829	0.2381402	-0.018375	60.03347
91.75	59.00546	60.70513	0.2389232	-0.016625	60.03347
91.8	57.97195	69.37123	0.2404892	-0.019125	60.03347
91.85	56.21712	67.80419	0.2404892	-0.0215	60.03347
91.9	54.58295	61.51911	0.2404892	-0.017125	60.03347
91.95	59.08917	59.86313	0.2404892	-0.02275	60.03347
92	73.62513	58.05417	0.2404892	-0.02625	60.53445
92.05	72.89816	53.48131	0.2404892	-0.024625	61.5364
92.1	67.04094	69.00636	0.2404892	-0.022875	61.5364
92.15	59.13027	92.21815	0.2404892	-0.0175	61.5364
92.2	54.93852	82.95906	0.2404892	-0.019125	61.5364
92.25	55.15231	64.6752	0.2404892	-0.016125	61.5364
92.3	58.6959	53.36045	0.2404892	-0.013625	61.5364
92.35	61.41826	59.77378	0.2342249	-0.016875	61.5364
92.4	60.90169	66.47996	0.2216963	-0.01175	61.5364
92.45	58.77432	64.31704	0.2216963	-0.014875	61.5364
92.5	56.41244	59.68074	0.2216963	-0.011875	61.5364
92.55	56.72879	60.6441	0.2216963	-0.017375	61.5364
92.6	71.74361	58.17413	0.2216963	-0.0175	61.5364
92.65	76.63895	53.4801	0.2216963	-0.025375	62.00736
92.7	71.80016	56.97125	0.2216963	-0.024375	62.94928
92.75	63.44155	86.68872	0.2216963	-0.023625	62.94928
92.8	57.29965	83.74253	0.2216963	-0.0245	62.94928
92.85	56.7073	64.73863	0.2216963	-0.024125	62.94928
92.9	60.50954	53.60016	0.2216963	-0.02525	62.94928
92.95	63.54184	56.97125	0.2216963	-0.02875	62.94928
93	62.79074	68.40867	0.2216963	-0.0225	62.94928
93.05	60.33422	64.56015	0.2216963	-0.02125	62.94928
93.1	57.79285	60.16287	0.2216963	-0.02175	62.94928
93.15	56.26501	58.71718	0.2216963	-0.0245	62.94928
93.2	63.42307	58.35751	0.2216963	-0.0255	62.94928
93.25	75.26268	53.78134	0.2216963	-0.020875	62.46426
93.3	71.73418	60.15927	0.2216963	-0.019125	61.4942
93.35	64.70393	89.75508	0.2216963	-0.021625	61.4942
93.4	57.58923	86.08784	0.2216963	-0.023	61.4942
93.45	55.56557	66.72157	0.2216963	-0.0175	61.4942
93.5	57.9365	55.3787	0.2216963	-0.02125	61.4942
93.55	61.32211	59.67894	0.2216963	-0.026375	61.4942
93.6	61.88732	68.8894	0.2216963	-0.02725	61.4942
93.65	60.11175	66.3644	0.2216963	-0.027625	61.4942
93.7	57.76871	63.65282	0.2216963	-0.029625	61.4942
93.75	55.70093	62.57161	0.2216963	-0.026875	61.4942
93.8	57.67332	59.98018	0.2216963	-0.021	61.4942
93.85	69.20752	54.20114	0.2216963	-0.018125	61.16447
93.9	70.76024	71.50384	0.2216963	-0.022375	60.50498
93.95	65.12398	95.94791	0.2216963	-0.027	60.50498
94	58.2159	84.40044	0.2216963	-0.0315	60.50498
94.05	55.40268	67.92784	0.2216963	-0.0295	60.50498
94.1	56.71521	58.29508	0.2216963	-0.022	60.50498
94.15	59.424	66.96319	0.2216963	-0.02425	60.50498
94.2	60.38662	73.70268	0.2216963	-0.03275	60.50498
94.25	59.30183	68.8894	0.2216963	-0.037625	60.50498
94.3	57.33171	65.99973	0.2216963	-0.03475	60.50498
94.35	55.54747	64.49832	0.2216963	-0.038625	60.50498
94.4	58.54093	61.36694	0.2216963	-0.037375	60.50498
94.45	70.30362	60.16066	0.234225	-0.037625	60.76868
94.5	70.55625	91.61966	0.2592822	-0.036875	61.29609
94.55	64.82837	95.22547	0.2592822	-0.035625	61.29609
94.6	58.02172	78.33117	0.2592822	-0.038375	61.29609
94.65	55.62891	66.66345	0.2592822	-0.036625	61.29609
94.7	57.35433	64.43809	0.2592822	-0.037375	61.29609
94.75	60.40208	73.22285	0.2592822	-0.038875	61.29609
94.8	61.44352	72.01988	0.2592822	-0.040125	61.29609
94.85	60.26898	69.25067	0.2592822	-0.03775	61.29609
94.9	57.99872	68.64919	0.2592822	-0.037125	61.29609
94.95	56.39736	66.3633	0.2592822	-0.041625	61.29609
95	64.43547	61.84947	0.2592822	-0.042875	61.29609
95.05	74.27027	76.76273	0.2592822	-0.037625	61.83519
95.1	70.82321	101.122	0.2592822	-0.032125	62.91339
95.15	63.68098	86.92553	0.2592822	-0.01375	62.91339
95.2	57.72309	72.19877	0.2655465	0.01175	62.91339
95.25	57.05419	66.30428	0.2780752	0.042	62.91339
95.3	60.49559	71.83929	0.2780752	0.080125	62.91339
95.35	63.22964	74.48475	0.2780752	0.11925	62.91339
95.4	62.68743	71.29864	0.2780752	0.160125	62.91339
95.45	60.55102	69.7321	0.2780752	0.19625	62.91339
95.5	58.11259	69.55161	0.2780752	0.236375	62.91339
95.55	59.3878	64.49922	0.2780752	0.27425	62.91339
95.6	72.4898	72.37795	0.2780752	0.312875	63.32421
95.65	74.58737	97.81139	0.2780752	0.348125	64.14585
95.7	68.96431	89.69355	0.2780752	0.390875	64.14585
95.75	61.23463	79.47471	0.2780752	0.4245	64.14585
95.8	57.95913	70.21323	0.2780752	0.46675	64.14585
95.85	60.35231	72.97883	0.2780752	0.49625	64.14585
95.9	64.18624	79.05341	0.2780752	0.53375	64.14585
95.95	64.63456	75.32635	0.2780752	0.56625	64.14585
96	62.63351	73.28138	0.2780752	0.59925	64.14585
96.05	60.03106	71.98947	0.2780752	0.6325	64.14585
96.1	58.26605	68.34564	0.2780752	0.666	64.14585
96.15	67.2717	66.65954	0.2780752	0.699125	64.14585
96.2	77.19171	91.26029	0.2780752	0.7315	64.82429
96.25	73.05388	94.98456	0.2780752	0.76825	66.18115
96.3	65.72689	82.54086	0.2796413	0.806125	66.18115
96.35	59.74751	73.76321	0.2827734	0.8275	66.18115
96.4	60.3591	72.56114	0.2827734	0.858875	66.18115
96.45	65.32307	77.23235	0.2827734	0.889375	66.18115
96.5	67.44929	77.43004	0.2827734	0.918875	66.18115
96.55	65.55231	73.22195	0.2827734	0.94975	66.18115
96.6	62.93629	73.10199	0.2827734	0.9735	66.18115
96.65	60.62002	71.77987	0.2827734	1.00375	66.18115
96.7	66.49496	68.22658	0.2827734	1.025	66.18115
96.75	79.90125	81.09718	0.2827734	1.050125	67.11624
96.8	76.94549	97.69174	0.2827734	1.07825	68.9864
96.85	70.11208	84.58383	0.2827734	1.103375	68.9864
96.9	63.00717	74.30506	0.2827734	1.130875	68.9864
96.95	62.78848	69.13071	0.2827734	1.15525	68.9864
97	67.95304	74.48425	0.2827734	1.176625	68.9864
97.05	70.33228	74.72606	0.2827734	1.195125	68.9864
97.1	68.9021	74.24583	0.2827734	1.22025	68.9864
97.15	66.12054	74.00402	0.2827734	1.23775	68.9864
97.2	63.82539	71.35787	0.2827734	1.262	68.9864
97.25	65.93616	68.4671	0.2851225	1.27425	68.9864
97.3	79.70782	76.34623	0.2898208	1.29575	69.58773
97.35	79.89823	98.2327	0.2898208	1.312625	70.79038
97.4	74.04253	84.22256	0.2898208	1.33175	70.79038
97.45	66.22121	76.89079	0.2898208	1.353125	70.79038
97.5	64.87097	69.79193	0.2898208	1.363625	70.79038
97.55	69.35607	73.88306	0.2898208	1.382375	70.79038
97.6	71.93741	75.20659	0.2898208	1.403875	70.79038
97.65	70.92841	72.14044	0.2898208	1.42075	70.79038
97.7	68.52164	72.43818	0.2898208	1.4345	70.79038
97.75	66.3562	69.67307	0.2898208	1.45125	70.79038
97.8	66.39919	67.26003	0.2898208	1.465875	70.79038
97.85	77.95149	69.06958	0.2898208	1.4815	70.79038
97.9	81.91775	93.12097	0.2898208	1.4945	71.36331
97.95	76.42327	83.26271	0.2898208	1.503375	72.50915
98	68.47753	73.88426	0.2898208	1.52075	72.50915
98.05	65.88827	66.66485	0.2898208	1.530625	72.50915
98.1	70.13734	69.19024	0.2898208	1.54425	72.50915
98.15	73.47468	73.52299	0.2898208	1.552	72.50915
98.2	72.93021	70.39531	0.2898208	1.5645	72.50915
98.25	70.90955	69.19134	0.2898208	1.57875	72.50915
98.3	68.56727	68.01458	0.2898208	1.5915	72.50915
98.35	67.92175	64.43989	0.2898208	1.606875	72.50915
98.4	79.68859	67.6238	0.2898208	1.618125	72.50915
98.45	84.38183	98.29292	0.2898208	1.62225	72.8134
98.5	78.50576	89.27385	0.2898208	1.633125	73.42191
98.55	70.04647	75.41739	0.2898208	1.64675	73.42191
98.6	66.67784	71.65351	0.2898208	1.657125	73.42191
98.65	70.79681	70.63763	0.274943	1.662	73.42191
98.7	74.37849	74.42552	0.2451875	1.673375	73.42191
98.75	73.66585	73.34181	0.2451875	1.6765	73.42191
98.8	71.51134	70.81641	0.2451875	1.684875	73.42191
98.85	69.31912	70.21403	0.2451875	1.690125	73.42191
98.9	67.99716	67.08624	0.2451875	1.6995	73.42191
98.95	78.58946	72.01608	0.2451875	1.7035	73.42191
99	86.65247	102.9597	0.2451875	1.709	74.08747
99.05	80.38879	92.52259	0.2451875	1.727625	75.4186
99.1	72.30995	82.54086	0.2451875	1.73175	75.4186
99.15	67.54431	80.497	0.2451875	1.743	75.4186
99.2	71.29679	75.14396	0.2451875	1.745125	75.4186
99.25	76.04055	80.19655	0.2451875	1.743625	75.4186
99.3	75.61184	74.66463	0.2451875	1.748125	75.4186
99.35	73.73824	73.70288	0.2451875	1.756	75.4186
99.4	71.48306	73.34201	0.2451875	1.765875	75.4186
99.45	70.04383	70.45574	0.2451875	1.769125	75.4186
99.5	84.12015	65.39845	0.2550538	1.7715	75.4186
99.55	91.60965	83.32103	0.2616313	1.777	77.58297
99.6	84.36297	110.269	0.2616313	1.780125	79.02588
99.65	76.01492	87.04889	0.2616313	1.781375	79.02588
99.7	71.45855	86.14747	0.2616313	1.792125	79.02588
99.75	75.13034	81.97139	0.2616313	1.795875	79.02588
99.8	79.88013	73.88376	0.2616313	1.801	79.02588
99.85	79.27609	77.49057	0.2616313	1.808125	79.02588
99.9	76.55448	75.14636	0.2616313	1.808375	79.02588
99.95	73.89547	72.01968	0.2616313	1.816875	79.02588
100	72.04412	69.37153	0.2616313	1.819	79.02588
100.05	88.27872	66.24014	0.2616313	1.821875	79.02588
100.1	97.89671	63.23622	0.2616313	1.825375	80.80961
100.15	89.39519	61.63767	0.2616313	1.8335	82.59335
100.2	80.60446	66.03074	0.2616313	1.838875	82.59335
100.25	76.25246	110.8709	0.2745515	1.842875	82.59335
100.3	79.7048	93.48264	0.2874717	1.85325	82.59335
100.35	83.45389	89.26925	0.2874717	1.854625	82.59335
100.4	81.90079	85.30337	0.2874717	1.853875	82.59335
100.45	78.89564	75.08513	0.2874717	1.867	82.59335
100.5	76.57635	77.1302	0.2874717	1.874625	82.59335
100.55	74.38188	73.94399	0.2874717	1.873375	82.59335
100.6	76.3833	70.99289	0.2874717	1.88275	82.59335
100.65	105.8111	68.4679	0.2874717	1.8825	83.45367
100.7	97.34847	65.34032	0.2874717	1.878	85.17431
100.75	92.81058	62.33179	0.2874717	1.88475	85.17431
100.8	84.39955	58.89577	0.2874717	1.8875	85.17431
100.85	81.83706	57.6935	0.2874717	1.892125	85.17431
100.9	84.99417	53.0593	0.2874717	1.89625	85.17431
100.95	86.52842	64.12984	0.2757261	1.90125	85.17431
101	83.88373	111.709	0.2522349	1.896125	85.17431
101.05	80.64217	92.82153	0.2522349	1.89925	85.17431
101.1	78.43977	85.54568	0.2522349	1.903375	85.17431
101.15	77.08915	86.14637	0.2522349	1.901375	85.17431
101.2	75.11073	74.66473	0.2522349	1.904875	85.17431
101.25	74.22276	72.49881	0.2522349	1.909125	85.17431
101.3	105.7418	75.08543	0.2522349	1.913375	85.90457
101.35	105.5065	70.90706	0.2522349	1.908875	87.36508
101.4	102.4384	67.02272	0.2522349	1.915375	87.36508
101.45	92.01348	65.21926	0.2522349	1.907625	87.36508
101.5	87.53705	61.12772	0.2522349	1.912375	87.36508
101.55	86.13816	58.47887	0.2522349	1.9125	87.36508
101.6	89.84954	56.24932	0.2522349	1.913	87.36508
101.65	88.24969	53.72262	0.2561501	1.918375	87.36508
101.7	84.77548	51.67095	0.2639805	1.915125	87.36508
101.75	81.6425	93.84831	0.2639805	1.916375	87.36508
101.8	79.17994	99.61765	0.2639805	1.92425	87.36508
101.85	77.3595	90.59557	0.2639805	1.9245	87.36508
101.9	76.35577	90.20469	0.2639805	1.92025	87.36508
101.95	75.19972	83.32293	0.2639805	1.92175	87.36508
102	74.9814	69.06728	0.2639805	1.915375	87.36508
102.05	111.1842	75.92883	0.2639805	1.921	88.14086
102.1	106.882	71.95615	0.2639805	1.923625	89.69245
102.15	107.2153	68.59086	0.2639805	1.923125	89.69245
102.2	97.72326	65.88227	0.2671126	1.928125	89.69245
102.25	91.53952	61.36794	0.273377	1.92725	89.69245
102.3	89.01172	59.58829	0.273377	1.922625	89.69245
102.35	92.74233	55.94627	0.273377	1.924875	89.69245
102.4	91.17905	53.4807	0.273377	1.924625	89.69245
102.45	87.32702	53.60176	0.273377	1.9215	89.69245
102.5	83.97084	51.67435	0.273377	1.92475	89.69245
102.55	81.11575	48.30305	0.273377	1.92475	89.69245
102.6	78.98236	84.22306	0.273377	1.926	89.69245
102.65	78.04876	97.63451	0.2710278	1.925625	89.69245
102.7	77.27089	87.98044	0.2663296	1.92725	89.69245
102.75	75.38146	94.08262	0.2663296	1.928125	89.69245
102.8	96.84208	85.54709	0.2663296	1.92925	89.69245
102.85	117.9675	71.47642	0.2663296	1.93525	90.22326
102.9	115.4216	69.49349	0.2663296	1.929375	91.28488
102.95	106.5619	69.85386	0.2663296	1.929125	91.28488
103	101.8735	68.34774	0.2663296	1.92625	91.28488
103.05	92.80944	63.77828	0.2663296	1.927875	91.28488
103.1	93.58354	60.52384	0.2663296	1.924125	91.28488
103.15	95.04313	57.03248	0.2663296	1.92725	91.28488
103.2	91.79365	54.50339	0.2663296	1.92675	91.28488
103.25	87.73726	51.25275	0.2663296	1.9265	91.28488
103.3	84.21969	50.82795	0.27416	1.931	91.28488
103.35	81.57953	49.14505	0.2898208	1.93175	91.28488
103.4	79.75646	47.81822	0.2898208	1.93175	91.28488
103.45	78.31836	46.13593	0.2898208	1.930625	91.28488
103.5	77.67925	44.03223	0.2898208	1.926875	91.28488
103.55	77.30634	42.10682	0.2898208	1.934125	91.28488
103.6	75.61523	43.31359	0.2898208	1.937875	91.28488
103.65	90.42493	39.76111	0.2898208	1.931	91.28488
103.7	119.1006	42.23007	0.2898208	1.927375	89.87881
103.75	117.7243	93.60631	0.2898208	1.92975	87.06668
103.8	110.7393	88.85495	0.2898208	1.92975	87.06668
103.85	106.215	82.60079	0.2898208	1.933	87.06668
103.9	96.56796	83.02069	0.2898208	1.93125	87.06668
103.95	93.42895	77.37302	0.2898208	1.93325	87.06668
104	95.4677	68.82997	0.2898208	1.93225	87.06668
104.05	93.33356	72.07921	0.2898208	1.9295	87.06668
104.1	89.21797	72.38015	0.2898208	1.92925	87.06668
104.15	85.24265	68.64829	0.2898208	1.929125	87.06668
104.2	82.5037	67.92414	0.2898208	1.92825	87.06668
104.25	81.20248	63.56088	0.2898208	1.929375	87.06668
104.3	79.68105	60.55265	0.2898208	1.9285	87.06668
104.35	78.23428	57.45198	0.2898208	1.931	87.06668
104.4	77.00243	54.50399	0.2874717	1.929875	87.06668
104.45	75.92329	54.62185	0.2827734	1.9285	87.06668
104.5	74.85471	52.88032	0.2827734	1.926625	87.06668
104.55	73.40756	51.7938	0.2827734	1.92825	87.06668
104.6	72.11199	49.6857	0.2827734	1.92675	87.06668
104.65	71.37484	49.20708	0.2827734	1.928875	87.06668
104.7	70.69991	46.98013	0.2827734	1.935625	87.06668
104.75	69.60908	61.2752	0.2827734	1.9355	87.06668
104.8	98.88724	104.0429	0.2827734	1.935375	87.06668
104.85	111.5579	91.19637	0.2827734	1.93725	86.97525
104.9	111.3169	88.49068	0.2827734	1.934	86.79239
104.95	106.1173	88.46257	0.2827734	1.9365	86.79239
105	100.268	82.30125	0.2827734	1.9385	86.79239
105.05	92.43201	69.07119	0.2694618	1.934125	86.79239
105.1	92.11603	73.22405	0.2428384	1.932625	86.79239
105.15	93.01268	72.37985	0.2428384	1.92425	86.79239
105.2	90.81896	68.65129	0.2428384	1.9275	86.79239
105.25	87.40093	64.23029	0.2428384	1.935625	86.79239
105.3	83.82755	61.12682	0.2428384	1.926875	86.79239
105.35	81.21982	58.35581	0.2428384	1.9295	86.79239
105.4	79.40844	54.98271	0.2428384	1.929875	86.79239
105.45	77.82856	52.45732	0.2428384	1.933875	86.79239
105.5	76.49039	51.37471	0.2428384	1.93325	86.79239
105.55	75.3479	52.45492	0.2584992	1.9305	86.79239
105.6	74.31438	49.86799	0.2898208	1.92875	86.79239
105.65	73.31179	48.69273	0.2898208	1.928125	86.79239
105.7	72.69077	45.53724	0.2898208	1.928375	86.79239
105.75	71.35938	51.07286	0.2898208	1.9295	86.79239
105.8	72.98035	96.91407	0.2898208	1.9265	86.79239
105.85	109.3174	87.52963	0.2898208	1.92975	86.76359
105.9	110.7193	82.11967	0.2898208	1.926	86.70599
105.95	108.3197	84.16243	0.2898208	1.934375	86.70599
106	104.6796	76.77013	0.2898208	1.9355	86.70599
106.05	98.34616	64.52633	0.2898208	1.930625	86.70599
106.1	91.18131	70.63533	0.2898208	1.933625	86.70599
106.15	91.22128	68.58836	0.2898208	1.933	86.70599
106.2	91.7533	65.69959	0.2780752	1.9315	86.70599
106.25	89.37822	64.61558	0.254584	1.932125	86.70599
106.3	85.77845	59.68014	0.254584	1.9315	86.70599
106.35	82.22996	57.99504	0.254584	1.93375	86.70599
106.4	80.00419	54.44356	0.254584	1.932125	86.70599
106.45	78.30856	51.19252	0.254584	1.932	86.70599
106.5	76.85236	49.62768	0.254584	1.931125	86.70599
106.55	75.44254	48.78278	0.254584	1.9265	86.70599
106.6	74.40111	49.50442	0.254584	1.9355	86.70599
106.65	73.40115	45.53914	0.254584	1.937375	86.70599
106.7	73.04521	48.48814	0.254584	1.932625	86.70599
106.75	71.77	96.73439	0.254584	1.93325	86.70599
106.8	70.49818	90.235	0.254584	1.93175	86.70599
106.85	99.57688	87.94912	0.254584	1.929875	86.85086
106.9	110.0651	87.58895	0.254584	1.932125	87.14062
106.95	106.6301	81.09798	0.254584	1.92975	87.14062
107	102.8509	66.24245	0.254584	1.935	87.14062
107.05	97.89407	70.69565	0.254584	1.93375	87.14062
107.1	90.16438	72.25849	0.254584	1.9335	87.14062
107.15	90.57877	67.32436	0.254584	1.934125	87.14062
107.2	92.05985	64.79966	0.254584	1.9395	87.14062
107.25	89.80505	60.82428	0.254584	1.93575	87.14062
107.3	86.07519	57.63407	0.2671126	1.9365	87.14062
107.35	82.64208	55.34619	0.2921699	1.93325	87.14062
107.4	80.33298	51.67275	0.2921699	1.935	87.14062
107.45	78.44204	51.19652	0.2921699	1.9335	87.14062
107.5	76.9964	50.58974	0.2921699	1.932	87.14062
107.55	75.7604	49.26611	0.2921699	1.930125	87.14062
107.6	74.5836	46.31681	0.2921699	1.931625	87.14062
107.65	74.16243	46.0807	0.2921699	1.93525	87.14062
107.7	73.29558	91.20137	0.2921699	1.935875	87.14062
107.75	72.27149	91.92211	0.2921699	1.931	87.14062
107.8	101.1017	84.54331	0.2921699	1.932625	87.4233
107.85	111.6092	88.97121	0.2921699	1.9275	87.98866
107.9	109.7318	83.02229	0.2921699	1.9325	87.98866
107.95	106.0634	70.63412	0.2921699	1.9335	87.98866
108	100.3257	70.09147	0.2921699	1.941625	87.98866
108.05	91.68016	71.77397	0.2921699	1.93075	87.98866
108.1	91.70542	68.94983	0.2921699	1.9355	87.98866
108.15	93.15822	64.0344	0.2921699	1.935	87.98866
108.2	90.61987	59.66473	0.2921699	1.937875	87.98866
108.25	86.60194	59.19871	0.2921699	1.93675	87.98866
108.3	83.02932	55.52557	0.2921699	1.93225	87.98866
108.35	80.66328	52.15848	0.2921699	1.93775	87.98866
108.4	78.93712	51.01113	0.2921699	1.9345	87.98866
108.45	77.45905	50.64786	0.2921699	1.936	87.98866
108.5	76.14689	48.60029	0.2921699	1.93925	87.98866
108.55	74.93691	46.67858	0.2921699	1.935875	87.98866
108.6	74.27705	47.31048	0.2921699	1.937375	87.98866
108.65	73.4875	41.26312	0.2921699	1.936125	87.98866
108.7	72.04186	49.50852	0.2921699	1.93275	87.98866
108.75	96.28667	100.7642	0.2921699	1.931375	87.98866
108.8	112.1412	84.34352	0.2921699	1.938375	87.67673
108.85	111.464	85.42312	0.2921699	1.9345	87.05287
108.9	108.469	87.29131	0.2921699	1.93325	87.05287
108.95	102.3943	78.51446	0.2913868	1.932	87.05287
109	93.31056	67.96886	0.2898208	1.9295	87.05287
109.05	91.91129	73.94419	0.2898208	1.9315	87.05287
109.1	93.34751	68.16896	0.2898208	1.927875	87.05287
109.15	91.31102	67.08384	0.2898208	1.928625	87.05287
109.2	87.57475	64.19888	0.2898208	1.926625	87.05287
109.25	83.90862	62.87115	0.2898208	1.928	87.05287
109.3	81.41401	59.3807	0.2898208	1.93275	87.05287
109.35	79.65051	56.12826	0.2898208	1.92925	87.05287
109.4	78.09514	52.849	0.2898208	1.926125	87.05287
109.45	76.68118	53.54404	0.2898208	1.93025	87.05287
109.5	75.50174	50.16914	0.2898208	1.93	87.05287
109.55	74.41807	50.28789	0.2898208	1.92975	87.05287
109.6	73.50145	45.95874	0.2898208	1.934625	87.05287
109.65	72.81256	44.87863	0.2898208	1.93	87.05287
109.7	71.44007	45.6564	0.2898208	1.934125	87.05287
109.75	72.00981	43.1311	0.2898208	1.93125	87.05287
109.8	105.4469	55.5898	0.2898208	1.93825	86.81837
109.85	110.5975	101.3077	0.2898208	1.93075	86.34937
109.9	109.5048	87.11142	0.2898208	1.9295	86.34937
109.95	106.3624	87.70971	0.2898208	1.928375	86.34937
110	100.262	88.43315	0.2898208	1.93125	86.34937
110.05	92.46934	77.9729	0.2898208	1.927125	86.34937
110.1	92.23179	71.11475	0.2898208	1.931625	86.34937
110.15	93.04171	72.65028	0.2898208	1.931875	86.34937
110.2	90.58292	72.2604	0.2898208	1.931	86.34937
110.25	86.86211	69.7329	0.2898208	1.939625	86.34937
110.3	83.51196	66.12089	0.2913868	1.93325	86.34937
110.35	81.54824	63.41541	0.294519	1.9365	86.34937
110.4	79.856	60.16517	0.294519	1.9405	86.34937
110.45	78.26029	58.23696	0.294519	1.937625	86.34937
110.5	76.88743	57.51241	0.294519	1.938	86.34937
110.55	75.7472	52.30845	0.294519	1.942	86.34937
110.6	74.71369	52.66932	0.294519	1.937375	86.34937
110.65	73.49051	51.67335	0.294519	1.93175	86.34937
110.7	72.6591	51.64814	0.294519	1.934875	86.34937
110.75	71.96833	49.87059	0.294519	1.93025	86.34937
110.8	70.67653	47.45895	0.294519	1.922	86.34937
110.85	72.27978	45.17437	0.294519	1.916875	86.34937
110.9	106.1927	58.1148	0.294519	1.90275	86.22572
110.95	110.3943	101.4869	0.294519	1.890625	85.97844
111	109.0806	90.53575	0.294519	1.879625	85.97844
111.05	105.9163	89.57119	0.294519	1.856875	85.97844
111.1	100.0222	93.96577	0.294519	1.834375	85.97844
111.15	92.55908	84.70198	0.294519	1.81525	85.97844
111.2	91.98671	74.48405	0.294519	1.790125	85.97844
111.25	92.85167	78.21331	0.2906038	1.766	85.97844
111.3	90.70509	76.58975	0.2827734	1.74	85.97844
111.35	87.1762	74.30506	0.2827734	1.710875	85.97844
111.4	83.68239	69.91328	0.2827734	1.676125	85.97844
111.45	81.42682	66.785	0.2827734	1.644375	85.97844
111.5	79.66748	64.16867	0.2827734	1.606	85.97844
111.55	78.15208	60.25271	0.2827734	1.576125	85.97844
111.6	76.51376	58.71748	0.2827734	1.54375	85.97844
111.65	75.15598	56.66901	0.2827734	1.504625	85.97844
111.7	74.06553	55.13288	0.2827734	1.468625	85.97844
111.75	73.08404	54.08399	0.2827734	1.4405	85.97844
111.8	72.03206	51.7969	0.2827734	1.399625	85.97844
111.85	71.28473	47.69936	0.2827734	1.366125	85.97844
111.9	69.93976	69.3058	0.2827734	1.339875	85.97844
111.95	71.2391	108.9145	0.2827734	1.3065	85.97844
112	103.7038	92.759	0.2827734	1.272	85.63867
112.05	108.6956	93.48285	0.2827734	1.239875	84.95913
112.1	106.4785	93.54227	0.2827734	1.212125	84.95913
112.15	103.1469	84.40495	0.2827734	1.176375	84.95913
112.2	97.51927	74.30266	0.2827734	1.145125	84.95913
112.25	90.01809	79.59587	0.2827734	1.11475	84.95913
112.3	89.37143	74.06385	0.2874717	1.088375	84.95913
112.35	90.61459	69.76251	0.2968681	1.059	84.95913
112.4	88.73081	71.29734	0.2968681	1.022125	84.95913
112.45	85.01981	64.79736	0.2968681	1.00625	84.95913
112.5	81.37781	63.59719	0.2968681	0.97325	84.95913
112.55	78.65432	59.49985	0.2968681	0.943875	84.95913
112.6	76.73811	57.81285	0.2968681	0.91675	84.95913
112.65	74.88072	55.64323	0.2968681	0.892375	84.95913
112.7	73.42905	55.04174	0.2968681	0.870375	84.95913
112.75	72.2006	52.75736	0.2968681	0.844625	84.95913
112.8	71.1799	55.34438	0.2968681	0.82525	84.95913
112.85	70.28024	101.785	0.2968681	0.80225	84.95913
112.9	68.6785	99.25677	0.2968681	0.775125	84.95913
112.95	69.37229	95.04819	0.2968681	0.753	84.95913
113	99.63268	95.88878	0.2960851	0.723625	84.35238
113.05	106.29	88.79202	0.294519	0.697625	83.13887
113.1	102.8626	77.3419	0.294519	0.68575	83.13887
113.15	99.20096	79.05632	0.294519	0.67025	83.13887
113.2	93.3	76.77063	0.294519	0.642625	83.13887
113.25	86.49184	70.87584	0.294519	0.6245	83.13887
113.3	86.25053	66.66325	0.294519	0.60475	83.13887
113.35	87.25237	68.58755	0.294519	0.59025	83.13887
113.4	84.31999	60.16377	0.294519	0.57075	83.13887
113.45	80.28208	57.75383	0.294519	0.54925	83.13887
113.5	76.92928	56.09654	0.294519	0.5365	83.13887
113.55	74.97725	54.02246	0.294519	0.5215	83.13887
113.6	73.55084	52.45932	0.294519	0.508	83.13887
113.65	72.33445	50.64906	0.294519	0.496625	83.13887
113.7	71.06867	47.09698	0.294519	0.479375	83.13887
113.75	70.04458	86.08834	0.294519	0.46725	83.13887
113.8	68.69547	110.0257	0.294519	0.451375	83.13887
113.85	67.43383	91.01607	0.294519	0.434625	83.13887
113.9	89.91364	94.68371	0.294519	0.422	83.13887
113.95	106.3002	91.01617	0.294519	0.408875	82.77014
114	104.0744	78.69184	0.294519	0.400875	82.03267
114.05	100.1591	77.01114	0.294519	0.384625	82.03267
114.1	94.90174	80.499	0.294519	0.3745	82.03267
114.15	87.13963	71.11515	0.294519	0.361375	82.03267
114.2	85.36143	65.03958	0.294519	0.35225	82.03267
114.25	86.41605	63.71445	0.294519	0.336875	82.03267
114.3	84.001	59.62151	0.294519	0.3255	82.03267
114.35	79.9612	58.77761	0.294519	0.321	82.03267
114.4	76.21777	55.40711	0.294519	0.304125	82.03267
114.45	74.0052	52.70123	0.294519	0.2885	82.03267
114.5	72.46379	52.15718	0.294519	0.285625	82.03267
114.55	71.17236	49.86769	0.294519	0.274625	82.03267
114.6	69.90846	48.6021	0.294519	0.26675	82.03267
114.65	68.64117	91.68139	0.294519	0.263125	82.03267
114.7	67.4968	104.1324	0.294519	0.253125	82.03267
114.75	65.88074	91.73892	0.293736	0.24325	82.03267
114.8	74.10927	93.48314	0.2921699	0.236875	82.03267
114.85	104.9624	87.52923	0.2921699	0.223125	81.95721
114.9	105.2082	76.83026	0.2921699	0.213875	81.8063
114.95	100.6994	76.7126	0.2921699	0.204625	81.8063
115	96.24595	76.89949	0.2921699	0.1935	81.8063
115.05	89.1467	68.94933	0.2921699	0.188	81.8063
115.1	85.09786	63.71865	0.2921699	0.184125	81.8063
115.15	85.11973	63.35278	0.2921699	0.182	81.8063
115.2	83.91729	58.35701	0.2921699	0.17425	81.8063
115.25	80.05584	56.45821	0.2921699	0.177875	81.8063
115.3	76.09825	55.3728	0.2921699	0.16575	81.8063
115.35	73.49918	53.30272	0.2921699	0.162375	81.8063
115.4	72.06034	51.25045	0.2921699	0.15675	81.8063
115.45	70.90691	48.72305	0.2921699	0.146125	81.8063
115.5	69.70108	58.9575	0.2921699	0.149	81.8063
115.55	68.47564	108.0439	0.2921699	0.147125	81.8063
115.6	67.39877	96.1296	0.2921699	0.133125	81.8063
115.65	65.92787	90.50543	0.2921699	0.126875	81.8063
115.7	79.13771	92.45906	0.2921699	0.126	81.8063
115.75	105.6539	85.3662	0.2921699	0.12475	81.84891
115.8	104.7957	75.98856	0.2921699	0.1215	81.93415
115.85	100.1172	81.16061	0.2921699	0.114875	81.93415
115.9	95.06764	73.46316	0.2921699	0.111625	81.93415
115.95	88.0095	66.48436	0.2921699	0.106	81.93415
116	85.49905	62.20984	0.2921699	0.102375	81.93415
116.05	85.41949	58.71598	0.2921699	0.101125	81.93415
116.1	83.37923	56.8498	0.2921699	0.095875	81.93415
116.15	79.42842	55.28286	0.2921699	0.09175	81.93415
116.2	75.76417	54.20205	0.2921699	0.082375	81.93415
116.25	73.35477	51.67405	0.2921699	0.082875	81.93415
116.3	71.86049	49.08442	0.2921699	0.0765	81.93415
116.35	70.6622	46.55712	0.2921699	0.076	81.93415
116.4	69.5808	64.2464	0.2921699	0.077375	81.93415
116.45	68.47376	109.1153	0.2921699	0.0795	81.93415
116.5	67.10843	93.84432	0.2921699	0.075	81.93415
116.55	66.67444	85.5753	0.2921699	0.0745	81.93415
116.6	93.98285	85.3653	0.2921699	0.067	81.71089
116.65	105.7406	75.50763	0.2921699	0.062625	81.26437
116.7	102.7668	73.88316	0.2921699	0.0595	81.26437
116.75	98.37444	78.45283	0.2921699	0.06025	81.26437
116.8	91.90225	70.66734	0.2921699	0.059375	81.26437
116.85	86.1129	62.08958	0.2921699	0.053	81.26437
116.9	85.30939	60.82458	0.2921699	0.0495	81.26437
116.95	84.84976	59.01813	0.2921699	0.04525	81.26437
117	81.54824	54.20324	0.2992173	0.0465	81.26437
117.05	77.63438	53.12103	0.313312	0.04525	81.26437
117.1	74.39432	50.16834	0.313312	0.047125	81.26437
117.15	72.39252	49.44389	0.313312	0.037875	81.26437
117.2	71.19159	47.30818	0.313312	0.036625	81.26437
117.25	69.84625	53.33163	0.313312	0.039125	81.26437
117.3	68.64042	105.3366	0.313312	0.035625	81.26437
117.35	67.45948	98.71792	0.313312	0.0335	81.26437
117.4	66.044	78.75097	0.313312	0.032625	81.26437
117.45	66.27627	75.74625	0.313312	0.03725	81.26437
117.5	94.60914	70.81571	0.313312	0.032	80.44439
117.55	103.3731	69.49249	0.313312	0.028875	78.80444
117.6	98.1237	74.84802	0.313312	0.025625	78.80444
117.65	91.12551	68.10813	0.313312	0.02275	78.80444
117.7	84.91801	60.88711	0.313312	0.021375	78.80444
117.75	81.58029	57.99494	0.313312	0.022375	78.80444
117.8	82.53311	55.76719	0.313312	0.015625	78.80444
117.85	81.64929	51.76449	0.313312	0.02025	78.80444
117.9	77.87683	52.39649	0.313312	0.020875	78.80444
117.95	73.86719	51.91756	0.3070476	0.019375	78.80444
118	71.04115	47.82102	0.294519	0.019	78.80444
118.05	69.32289	75.0184	0.294519	0.01775	78.80444
118.1	68.25884	110.2104	0.294519	0.0275	78.80444
118.15	67.44703	86.98806	0.294519	0.016	78.80444
118.2	66.6258	74.6039	0.294519	0.0135	78.80444
118.25	65.47351	73.52439	0.294519	0.015875	78.80444
118.3	64.48977	66.42273	0.294519	0.016	78.80444
118.35	84.61674	71.47773	0.294519	0.016625	78.80444
118.4	100.9343	71.35797	0.294519	0.013625	78.33347
118.45	96.06949	62.93308	0.294519	0.015125	77.39154
118.5	85.95152	60.04411	0.294519	0.009625	77.39154
118.55	78.75198	56.54906	0.294519	0.01375	77.39154
118.6	76.82107	53.72272	0.294519	0.017375	77.39154
118.65	80.4099	50.40905	0.294519	0.01425	77.39154
118.7	80.64443	48.54427	0.294519	0.009	77.39154
118.75	76.77243	46.25638	0.294519	0.005625	77.39154
118.8	72.31032	60.27682	0.294519	-0.00225	77.39154
118.85	69.24258	111.2948	0.294519	-0.003	77.39154
118.9	67.58994	93.00472	0.294519	-0.00275	77.39154
118.95	66.94178	72.56204	0.294519	-0.004	77.39154
119	66.54926	71.8407	0.294519	-0.001625	77.39154
119.05	65.65035	64.13635	0.294519	-0.007625	77.39154
119.1	66.67784	68.10843	0.294519	-0.005	77.39154
119.15	93.98172	72.07901	0.294519	-0.01125	77.05236
119.2	99.1591	63.65542	0.294519	-0.0115	76.37401
119.25	91.21336	58.71578	0.294519	-0.011625	76.37401
119.3	81.77485	54.56341	0.294519	-0.0045	76.37401
119.35	75.48288	51.94748	0.294519	-0.004625	76.37401
119.4	76.01454	48.18249	0.294519	-0.0145	76.37401
119.45	79.78474	48.18069	0.294519	-0.0145	76.37401
119.5	78.505	45.53644	0.294519	-0.01525	76.37401
119.55	74.28271	56.24771	0.294519	-0.0125	76.37401
119.6	70.22218	104.4342	0.294519	-0.012125	76.37401
119.65	67.66045	90.47842	0.294519	-0.016	76.37401
119.7	66.43425	69.67187	0.294519	-0.01975	76.37401
119.75	65.81475	67.89723	0.294519	-0.016375	76.37401
119.8	65.05837	60.58557	0.294519	-0.014	76.37401
119.85	64.73109	64.91702	0.294519	-0.02075	76.37401
119.9	86.94017	68.83007	0.2898208	-0.014375	76.12279
119.95	98.85255	61.12592	0.2804243	-0.0165	75.62034
120	92.70085	56.24561	0.2804243	-0.016125	75.62034
120.05	82.30839	54.68517	0.2804243	-0.018625	75.62034
120.1	74.87054	49.56515	0.2804243	-0.016	75.62034
120.15	73.59986	47.88135	0.2804243	-0.012875	75.62034
120.2	77.66417	45.41588	0.2804243	-0.02175	75.62034
120.25	77.91227	44.57569	0.2804243	-0.02425	75.62034
120.3	74.44372	73.45526	0.2804243	-0.022375	75.62034
120.35	70.31607	102.6903	0.2804243	-0.02425	75.62034
120.4	67.22193	79.41118	0.2835565	-0.01925	75.62034
120.45	65.60322	64.2563	0.2898208	-0.016875	75.62034
120.5	64.80688	58.83694	0.2898208	-0.02025	75.62034
120.55	64.25599	56.15967	0.2898208	-0.017375	75.62034
120.6	63.94567	66.18072	0.2898208	-0.018625	75.62034
120.65	85.19476	62.5695	0.2898208	-0.006125	75.23411
120.7	97.02345	55.04754	0.2898208	-0.01925	74.46165
120.75	91.21072	52.39909	0.2898208	-0.020125	74.46165
120.8	80.63802	48.72275	0.2898208	-0.0205	74.46165
120.85	72.6048	45.71803	0.2898208	-0.019625	74.46165
120.9	71.35448	43.58152	0.2898208	-0.023	74.46165
120.95	75.58017	41.89802	0.2898208	-0.0295	74.46165
121	76.50924	50.71599	0.2898208	-0.021625	74.46165
121.05	73.55839	97.27444	0.2898208	-0.019875	74.46165
121.1	69.35607	81.45835	0.2898208	-0.01675	74.46165
121.15	66.23442	57.9036	0.2898208	-0.019125	74.46165
121.2	64.49128	53.4778	0.2898208	-0.017625	74.46165
121.25	63.82388	51.31488	0.2898208	-0.01825	74.46165
121.3	63.25981	62.87135	0.2898208	-0.024625	74.46165
121.35	66.25477	61.42787	0.2898208	-0.0265	74.46165
121.4	91.56742	51.31508	0.2898208	-0.027375	73.60143
121.45	92.62167	51.07006	0.2898208	-0.02675	71.88098
121.5	83.97234	48.18099	0.2898208	-0.021125	71.88098
121.55	74.04554	47.28187	0.2898208	-0.026375	71.88098
121.6	67.49605	43.79472	0.2898208	-0.023	71.88098
121.65	68.91454	40.18201	0.2859056	-0.02875	71.88098
121.7	73.38607	58.535	0.2780752	-0.033375	71.88098
121.75	73.17869	101.0022	0.2780752	-0.02975	71.88098
121.8	70.04722	80.85557	0.2780752	-0.028375	71.88098
121.85	66.24874	55.10597	0.2780752	-0.030625	71.88098
121.9	63.67608	50.86317	0.2780752	-0.026	71.88098
121.95	62.3888	50.49949	0.2780752	-0.026	71.88098
122	61.68823	63.11156	0.2780752	-0.0255	71.88098
122.05	61.42203	60.40188	0.2780752	-0.016625	71.88098
122.1	76.11634	52.33476	0.2780752	-0.029375	71.88098
122.15	88.93065	50.76862	0.2827734	-0.028375	71.08853
122.2	84.63219	50.10851	0.2921699	-0.031	69.50366
122.25	74.62659	45.26671	0.2921699	-0.028625	69.50366
122.3	65.84039	43.10069	0.2921699	-0.027625	69.50366
122.35	63.55014	42.64967	0.2921699	-0.034125	69.50366
122.4	67.9915	83.20258	0.2921699	-0.02525	69.50366
122.45	70.88693	97.03853	0.2921699	-0.028625	69.50366
122.5	69.51595	64.97635	0.2921699	-0.0295	69.50366
122.55	66.36148	53.78235	0.2921699	-0.02475	69.50366
122.6	63.69116	50.71299	0.2921699	-0.025875	69.50366
122.65	62.14107	59.35158	0.2921699	-0.0265	69.50366
122.7	61.09813	63.08385	0.2921699	-0.0305	69.50366
122.75	60.44658	57.39075	0.2921699	-0.01925	69.50366
122.8	73.50107	53.83637	0.2921699	-0.019125	69.50366
122.85	85.87573	52.39789	0.2921699	-0.0225	69.13903
122.9	82.19791	48.30145	0.2921699	-0.024375	68.40977
122.95	72.65533	46.73881	0.2921699	-0.028125	68.40977
123	64.25712	42.83006	0.2921699	-0.034	68.40977
123.05	61.99704	70.50837	0.2921699	-0.027	68.40977
123.1	66.15938	103.289	0.2921699	-0.03225	68.40977
123.15	69.48918	80.85416	0.2921699	-0.033	68.40977
123.2	68.49864	57.39106	0.2913868	-0.035125	68.40977
123.25	65.63188	53.77864	0.2898208	-0.033125	68.40977
123.3	62.89821	56.4306	0.2898208	-0.03675	68.40977
123.35	61.11058	67.26553	0.2898208	-0.034625	68.40977
123.4	59.82443	62.57211	0.2898208	-0.03625	68.40977
123.45	64.14928	55.34649	0.2898208	-0.03325	68.40977
123.5	84.44404	54.56301	0.2898208	-0.038875	68.4231
123.55	84.44216	50.9511	0.2898208	-0.039375	68.44976
123.6	76.70418	48.30235	0.2898208	-0.036	68.44976
123.65	67.28301	44.45313	0.2898208	-0.03875	68.44976
123.7	62.21837	57.75432	0.2898208	-0.046375	68.44976
123.75	64.0833	98.29832	0.2898208	-0.0455	68.44976
123.8	68.55408	82.65942	0.2898208	-0.043375	68.44976
123.85	68.98354	57.78314	0.2898208	-0.046375	68.44976
123.9	66.62505	53.44749	0.2898208	-0.046375	68.44976
123.95	63.71001	50.88917	0.2898208	-0.0475	68.44976
124	61.46614	62.57271	0.2898208	-0.048625	68.44976
124.05	59.99185	59.80259	0.2898208	-0.0485	68.44976
124.1	60.39567	55.5833	0.2898208	-0.050125	68.44976
124.15	79.82999	54.26677	0.2898208	-0.0465	68.30402
124.2	84.55528	51.79341	0.2898208	-0.044125	68.01254
124.25	79.00875	48.18019	0.2898208	-0.0455	68.01254
124.3	69.49069	44.12517	0.2898208	-0.04375	68.01254
124.35	62.68027	61.84196	0.2898208	-0.049875	68.01254
124.4	62.46497	99.34742	0.2898208	-0.0515	68.01254
124.45	67.15443	76.17585	0.2898208	-0.049875	68.01254
124.5	68.76749	56.6375	0.2890377	-0.046	68.01254
124.55	67.04735	51.67475	0.2874717	-0.04825	68.01254
124.6	64.03541	53.23889	0.2874717	-0.048875	68.01254
124.65	61.55928	62.39052	0.2874717	-0.050625	68.01254
124.7	59.7724	61.00646	0.2874717	-0.044	68.01254
124.75	59.09633	54.62264	0.2874717	-0.046625	68.01254
124.8	73.53991	51.24995	0.2874717	-0.051	68.01254
124.85	83.58737	50.19565	0.2874717	-0.049375	67.6817
124.9	79.84318	48.00141	0.2874717	-0.051	67.02
124.95	70.59697	44.03263	0.2874717	-0.05	67.02
125	62.80394	56.36787	0.2874717	-0.04875	67.02
125.05	61.0182	95.10541	0.2874717	-0.053625	67.02
125.1	64.69074	76.46559	0.2874717	-0.05575	67.02
125.15	67.24531	56.72684	0.2874717	-0.05425	67.02
125.2	66.44971	52.09695	0.2874717	-0.049125	67.02
125.25	63.83143	53.77994	0.2874717	-0.029625	67.02
125.3	61.37225	63.6099	0.2874717	-0.0065	67.02
125.35	59.59707	61.24678	0.2874717	0.022	67.02
125.4	58.58844	57.93501	0.2874717	0.05575	67.02
125.45	70.30362	52.75786	0.2874717	0.095375	67.02
125.5	82.10025	52.81939	0.2874717	0.14225	66.76094
125.55	79.18409	47.63864	0.2874717	0.184625	66.24281
125.6	70.4092	45.2388	0.2874717	0.218875	66.24281
125.65	62.45818	70.23624	0.2874717	0.25775	66.24281
125.7	60.17057	95.73791	0.2874717	0.295	66.24281
125.75	63.3043	69.55151	0.2874717	0.335	66.24281
125.8	66.43802	56.18578	0.2874717	0.372375	66.24281
125.85	65.84981	51.49466	0.2874717	0.406375	66.24281
125.9	63.39441	57.63577	0.2874717	0.439125	66.24281
125.95	60.93638	62.81432	0.2874717	0.476625	66.24281
126	59.20455	61.27759	0.2874717	0.508875	66.24281
126.05	58.3441	56.8495	0.2866886	0.541125	66.24281
126.1	70.58755	55.64053	0.2851225	0.577	66.24281
126.15	80.67045	54.44286	0.2851225	0.609875	66.13939
126.2	77.61439	51.795	0.2851225	0.644625	65.93253
126.25	69.03671	48.66362	0.2851225	0.679875	65.93253
126.3	61.63657	79.83228	0.2851225	0.708125	65.93253
126.35	59.81463	89.21232	0.2851225	0.74925	65.93253
126.4	63.12784	68.61837	0.2851225	0.779375	65.93253
126.45	66.05456	55.88794	0.2851225	0.803875	65.93253
126.5	65.46484	51.43263	0.2851225	0.83425	65.93253
126.55	63.14744	62.63114	0.2851225	0.861875	65.93253
126.6	60.76972	63.71475	0.2851225	0.892	65.93253
126.65	59.20606	59.01842	0.2851225	0.921625	65.93253
126.7	59.23434	56.8495	0.2851225	0.949125	65.93253
126.75	74.75969	56.97015	0.2851225	0.972875	66.29318
126.8	80.59541	56.24471	0.2851225	0.99975	67.01448
126.85	76.49001	52.75536	0.2851225	1.031	67.01448
126.9	67.77922	53.83947	0.2851225	1.05	67.01448
126.95	61.31984	83.31953	0.2898208	1.06875	67.01448
127	60.95033	84.04048	0.2992173	1.08925	67.01448
127.05	65.29026	64.19668	0.2992173	1.11975	67.01448
127.1	67.48926	55.165	0.2992173	1.144	67.01448
127.15	66.42897	53.36034	0.2992173	1.164	67.01448
127.2	64.14853	63.56658	0.2992173	1.19025	67.01448
127.25	61.93596	62.27237	0.2992173	1.22	67.01448
127.3	60.36627	60.10234	0.2992173	1.2335	67.01448
127.35	62.22667	58.65445	0.2992173	1.256875	67.01448
127.4	77.72563	57.33093	0.2992173	1.276375	67.04719
127.45	79.21463	57.08941	0.2992173	1.298375	67.11262
127.5	73.66057	52.33606	0.2992173	1.30975	67.11262
127.55	65.16433	71.20149	0.2984342	1.333625	67.11262
127.6	60.83155	90.8664	0.2968681	1.348375	67.11262
127.65	62.47439	69.85045	0.2968681	1.368875	67.11262
127.7	66.61939	57.99484	0.2968681	1.3835	67.11262
127.75	67.81428	53.899	0.2968681	1.4005	67.11262
127.8	66.4565	60.28413	0.2968681	1.416	67.11262
127.85	64.14325	62.63354	0.2968681	1.43075	67.11262
127.9	62.20291	59.62201	0.2968681	1.439125	67.11262
127.95	60.79234	59.25864	0.2968681	1.456125	67.11262
128	67.46966	59.7999	0.2968681	1.477	67.11262
128.05	79.58565	57.15154	0.2968681	1.496	67.30709
128.1	78.03142	53.54113	0.2968681	1.512125	67.69601
128.15	70.58717	63.04743	0.2968681	1.5195	67.69601
128.2	63.35332	89.75418	0.2968681	1.529125	67.69601
128.25	61.71236	77.85004	0.2968681	1.539	67.69601
128.3	64.96863	62.93198	0.2968681	1.53975	67.69601
128.35	67.92967	54.7444	0.2968681	1.55525	67.69601
128.4	67.80599	58.17432	0.2968681	1.57075	67.69601
128.45	66.31095	63.83621	0.2968681	1.5805	67.69601
128.5	64.51315	61.12732	0.2968681	1.589125	67.69601
128.55	62.92686	59.68084	0.2968681	1.606375	67.69601
128.6	63.51168	59.71075	0.2968681	1.612375	67.69601
128.65	76.65742	59.19851	0.2960851	1.621125	67.94078
128.7	79.34773	56.0046	0.294519	1.633625	68.43034
128.75	74.59605	61.90519	0.294519	1.646875	68.43034
128.8	66.30116	86.86821	0.294519	1.6545	68.43034
128.85	61.92766	80.61615	0.294519	1.66225	68.43034
128.9	63.12708	65.27719	0.294519	1.6685	68.43034
128.95	67.14954	58.50558	0.294519	1.67825	68.43034
129	68.47225	54.86526	0.294519	1.681875	68.43034
129.05	67.50736	62.50678	0.294519	1.688375	68.43034
129.1	65.77214	63.05303	0.2929529	1.699	68.43034
129.15	63.9272	59.07925	0.2898208	1.70775	68.43034
129.2	63.12256	59.7993	0.2898208	1.715	68.43034
129.25	75.16541	59.92405	0.2898208	1.723	68.43034
129.3	81.58029	57.75162	0.2898208	1.732125	68.62832
129.35	77.43718	71.01961	0.2898208	1.73375	69.0243
129.4	69.02313	96.90947	0.2898208	1.743	69.0243
129.45	62.87408	83.19957	0.2898208	1.750625	69.0243
129.5	62.60448	68.10633	0.2898208	1.755125	69.0243
129.55	66.78454	63.89503	0.2898208	1.757375	69.0243
129.6	68.96318	57.32923	0.2898208	1.76475	69.0243
129.65	68.5224	64.07652	0.2898208	1.77075	69.0243
129.7	66.85882	66.90046	0.2898208	1.774125	69.0243
129.75	65.04178	63.05493	0.2898208	1.784375	69.0243
129.8	63.75337	63.59769	0.2898208	1.793875	69.0243
129.85	74.90523	61.78834	0.2913868	1.79425	69.0243
129.9	82.61003	58.23376	0.294519	1.798875	69.25409
129.95	78.66563	77.1265	0.294519	1.8005	69.71368
130	70.33567	108.8254	0.294519	1.802	69.71368
130.05	63.59652	87.17065	0.294519	1.80925	69.71368
130.1	62.73833	73.52359	0.294519	1.8155	69.71368
130.15	66.36186	69.67127	0.294519	1.81475	69.71368
130.2	69.18301	65.21866	0.294519	1.81825	69.71368
130.25	68.92208	71.47642	0.294519	1.827125	69.71368
130.3	67.28829	74.00212	0.294519	1.836125	69.71368
130.35	65.18544	68.70941	0.294519	1.839625	69.71368
130.4	64.90076	69.67257	0.294519	1.84125	69.71368
130.45	82.32309	67.50484	0.294519	1.842875	70.64234
130.5	85.86329	63.95786	0.294519	1.848	72.49967
130.55	80.37936	95.291	0.294519	1.8495	72.49967
130.6	71.55545	115.7426	0.294519	1.862	72.49967
130.65	64.92527	92.37832	0.294519	1.874375	72.49967
130.7	64.94224	88.72999	0.294519	1.874	72.49967
130.75	69.58043	80.13572	0.294519	1.872125	72.49967
130.8	71.93025	80.25468	0.294519	1.876	72.49967
130.85	71.15615	85.7837	0.294519	1.884	72.49967
130.9	69.03595	81.15761	0.294519	1.887125	72.49967
130.95	66.75438	77.66855	0.2921699	1.891625	72.49967
131	68.87495	79.77475	0.2874717	1.89375	72.49967
131.05	90.76956	74.72506	0.2874717	1.89925	73.87514
131.1	89.83823	77.00844	0.2874717	1.901125	76.6261
131.15	81.62516	117.2719	0.2874717	1.91125	76.6261
131.2	72.83745	111.6498	0.2874717	1.9125	76.6261
131.25	67.786	102.8669	0.2874717	1.9085	76.6261
131.3	70.37753	101.4831	0.2874717	1.909875	76.6261
131.35	75.51607	91.97884	0.2874717	1.912	76.6261
131.4	76.25095	88.9702	0.2874717	1.9195	76.6261
131.45	74.32871	90.77286	0.2772921	1.9235	76.6261
131.5	71.70515	87.70761	0.2569331	1.918375	76.6261
131.55	69.37795	85.9954	0.2569331	1.917125	76.6261
131.6	80.58259	82.24022	0.2569331	1.91	76.6261
131.65	99.48073	79.83428	0.2569331	1.914375	78.83691
131.7	95.29162	75.98496	0.2569331	1.918875	83.25852
131.75	85.10163	90.89982	0.2569331	1.91325	83.25852
131.8	77.93037	124.46	0.2678957	1.91825	83.25852
131.85	75.63522	113.6365	0.2898208	1.92225	83.25852
131.9	80.39444	111.7102	0.2898208	1.921125	83.25852
131.95	83.0855	107.379	0.2898208	1.918875	83.25852
132	81.09087	95.58564	0.2898208	1.921375	83.25852
132.05	78.39302	94.62479	0.2898208	1.92375	83.25852
132.1	76.00737	93.24203	0.2898208	1.9285	83.25852
132.15	74.80946	90.83599	0.2898208	1.92975	83.25852
132.2	99.09764	86.86461	0.2898208	1.924875	85.04809
132.25	104.8926	83.74284	0.2898208	1.931375	88.62724
132.3	98.91326	82.93105	0.2906038	1.92525	88.62724
132.35	91.9177	75.38617	0.2921699	1.927625	88.62724
132.4	86.3052	73.22115	0.2921699	1.932375	88.62724
132.45	84.82789	69.37173	0.2921699	1.933125	88.62724
132.5	87.31307	69.06968	0.2921699	1.934625	88.62724
132.55	87.16074	66.17802	0.2921699	1.93025	88.62724
132.6	84.57526	65.33742	0.2921699	1.9335	88.62724
132.65	82.30122	63.56648	0.2921699	1.936375	88.62724
132.7	80.37596	63.11397	0.2921699	1.93025	88.62724
132.75	78.091	64.73403	0.2921699	1.93725	88.62724
132.8	80.9144	116.9443	0.2921699	1.933125	88.62724
132.85	111.947	111.8919	0.2921699	1.933	87.9741
132.9	110.2891	103.6526	0.2921699	1.936875	86.66782
132.95	104.7709	98.95464	0.2921699	1.941	86.66782
133	100.2684	96.12819	0.2921699	1.9285	86.66782
133.05	92.84904	87.97794	0.2921699	1.928125	86.66782
133.1	90.76881	90.48523	0.2921699	1.9255	86.66782
133.15	91.97501	88.06788	0.2921699	1.928375	86.66782
133.2	90.88569	85.00633	0.2921699	1.929375	86.66782
133.25	88.16334	82.24102	0.2921699	1.928625	86.66782
133.3	85.26226	76.16985	0.2921699	1.9315	86.66782
133.35	82.73672	74.12458	0.2921699	1.925125	86.66782
133.4	80.87971	71.4174	0.2819904	1.93075	86.66782
133.45	79.43256	68.77064	0.2616313	1.927625	86.66782
133.5	78.05895	67.98627	0.2616313	1.927875	86.66782
133.55	76.90515	68.82797	0.2616313	1.925875	86.66782
133.6	75.74042	63.11496	0.2616313	1.92975	86.66782
133.65	74.66429	89.09577	0.2616313	1.931	86.66782
133.7	74.02631	120.3709	0.2616313	1.926	86.66782
133.75	72.93624	106.1787	0.2616313	1.9335	86.66782
133.8	72.30429	105.0966	0.2616313	1.934	86.66782
133.85	104.0571	103.2019	0.2616313	1.933375	87.78991
133.9	110.472	90.35437	0.2616313	1.93175	90.03409
133.95	106.9751	90.62809	0.2616313	1.928	90.03409
134	102.7902	90.53395	0.2616313	1.931875	90.03409
134.05	97.21687	86.8366	0.2616313	1.93575	90.03409
134.1	91.39962	81.63674	0.2616313	1.937125	90.03409
134.15	92.20766	78.15148	0.2616313	1.93725	90.03409
134.2	93.15182	75.14496	0.2616313	1.935125	90.03409
134.25	90.6342	71.4171	0.2616313	1.93475	90.03409
134.3	87.2075	69.67127	0.2616313	1.932125	90.03409
134.35	84.14428	67.01921	0.2616313	1.934	90.03409
134.4	82.03502	67.80488	0.2616313	1.93225	90.03409
134.45	80.65273	65.1005	0.2616313	1.931	90.03409
134.5	79.32699	62.80992	0.2616313	1.937125	90.03409
134.55	78.51028	99.5025	0.2647635	1.937125	90.03409
134.6	77.76635	109.786	0.2710278	1.93525	90.03409
134.65	76.06469	104.7326	0.2710278	1.931875	90.03409
134.7	85.59482	107.1995	0.2710278	1.9335	90.03409
134.75	114.2267	101.6623	0.2710278	1.930125	90.3194
134.8	112.1212	86.80599	0.2710278	1.931625	90.89005
134.85	106.5004	87.91741	0.2710278	1.937375	90.89005
134.9	102.6925	87.70911	0.2710278	1.938375	90.89005
134.95	95.11892	85.06516	0.2710278	1.939	90.89005
135	92.76118	82.11877	0.2710278	1.93675	90.89005
135.05	94.59557	75.26592	0.2710278	1.939375	90.89005
135.1	93.3871	72.14024	0.2710278	1.934	90.89005
135.15	90.20322	69.01005	0.2710278	1.9365	90.89005
135.2	86.73618	67.32386	0.2710278	1.939	90.89005
135.25	84.21555	64.68001	0.2710278	1.93725	90.89005
135.3	82.32422	63.29525	0.2710278	1.93375	90.89005
135.35	80.81411	60.64459	0.2710278	1.931875	90.89005
135.4	79.43672	58.77601	0.2686787	1.929	90.89005
135.45	78.71616	58.17382	0.2639805	1.936	90.89005
135.5	77.74297	53.30162	0.2639805	1.931375	90.89005
135.55	76.01152	81.57491	0.2639805	1.937625	90.89005
135.6	92.56926	109.3652	0.2639805	1.935875	90.89005
135.65	114.502	100.6698	0.2639805	1.940625	90.51859
135.7	114.7629	105.2163	0.2639805	1.937	89.77567
135.75	109.9901	97.39249	0.2639805	1.933875	89.77567
135.8	104.2833	89.33498	0.2639805	1.93875	89.77567
135.85	96.23879	83.20228	0.2639805	1.93575	89.77567
135.9	93.97531	84.64516	0.2639805	1.934625	89.77567
135.95	95.00995	82.12127	0.2639805	1.935875	89.77567
136	93.72833	79.59527	0.2639805	1.932875	89.77567
136.05	90.79784	74.18341	0.2639805	1.93375	89.77567
136.1	87.20825	70.93877	0.2639805	1.9355	89.77567
136.15	84.41953	67.68473	0.2639805	1.93525	89.77567
136.2	82.59042	64.79966	0.2639805	1.93825	89.77567
136.25	81.01433	63.71705	0.2663296	1.940625	89.77567
136.3	79.61921	60.6447	0.2710278	1.9345	89.77567
136.35	78.40886	57.99384	0.2710278	1.93375	89.77567
136.4	77.26675	58.29368	0.2710278	1.9305	89.77567
136.45	76.53639	59.61901	0.2710278	1.9325	89.77567
136.5	75.75852	53.77984	0.2710278	1.9315	89.77567
136.55	74.15564	53.78205	0.2710278	1.94125	89.77567
136.6	80.70891	88.79292	0.2710278	1.94525	89.77567
136.65	112.7871	104.19	0.2710278	1.94375	89.57158
136.7	112.9915	96.49267	0.2710278	1.943375	89.16342
136.75	110.9214	100.3394	0.2710278	1.931625	89.16342
136.8	106.4752	93.12067	0.2710278	1.940125	89.16342
136.85	98.82126	83.01909	0.2710278	1.93475	89.16342
136.9	93.78602	82.11997	0.2710278	1.93975	89.16342
136.95	94.6295	84.88397	0.2710278	1.935	89.16342
137	94.2943	79.59517	0.2710278	1.936625	89.16342
137.05	91.50973	77.79282	0.2710278	1.936875	89.16342
137.1	88.15693	73.58322	0.2710278	1.9445	89.16342
137.15	84.80225	69.61204	0.2710278	1.94075	89.16342
137.2	82.77933	66.00113	0.2710278	1.9395	89.16342
137.25	81.32804	65.15933	0.2710278	1.93275	89.16342
137.3	79.92048	66.00283	0.2757261	1.943875	89.16342
137.35	78.47182	61.66758	0.2851225	1.9455	89.16342
137.4	77.08274	64.07682	0.2851225	1.94625	89.16342
137.45	76.05639	59.01833	0.2851225	1.94525	89.16342
137.5	75.39956	55.82711	0.2851225	1.946875	89.16342
137.55	74.35171	88.79592	0.2851225	1.9485	89.16342
137.6	72.8054	105.5154	0.2851225	1.9435	89.16342
137.65	90.13837	97.8099	0.2851225	1.942875	89.16342
137.7	111.5006	101.1223	0.2851225	1.940375	89.25822
137.75	111.0236	94.26311	0.2851225	1.939	89.44781
137.8	106.5615	86.92804	0.2851225	1.934375	89.44781
137.85	100.6556	84.88317	0.2851225	1.934375	89.44781
137.9	93.01532	84.88557	0.2851225	1.9365	89.44781
137.95	92.07607	82.12056	0.2851225	1.937	89.44781
138	94.23472	78.75137	0.2851225	1.943	89.44781
