0.00100392403620318
0.000996423802334769
0.000987423824149264
0.00097699310739449
0.000965276272259167
0.000952500208380899
0.00093897852873789
0.000925113419682587
0.00091139453025012
0.000898394605709972
0.000886761649460457
0.000877207494680645
0.000870492782876717
0.000867408478959308
0.000868754199426021
0.00087531378668688
0.000887828722437711
0.000906970127875237
0.000933310240340227
0.000967294374022505
0.00100921445800574
0.00105918528935177
0.0011171246350432
0.00118273826005241
0.00125551084717507
0.0013347036092878
0.00141935917993836
0.00150831411139989
0.00160021902012713
0.00169356611025022
0.00178672348949779
0.00187797538391473
0.00196556707200914
0.00204775311003376
0.00212284722058378
0.00218927207818248
0.00224560715653008
0.00229063280903309
0.00232336884024894
0.00234310599027822
0.0023494289939194
0.00234223018311263
0.00232171296446611
0.00228838490883113
0.00224304061957309
0.00218673498065633
0.00212074780406703
0.00204654127641165
0.00196571192650488
0.00187993908056178
0.00179093192406546
0.00170037733907972
0.001609890627529
0.00152097106642031
0.00143496397746568
0.00135303064565347
0.00127612700811656
0.00120499158050621
0.001140142619328
0.00108188406365399
0.0010303193844269
0.000985372118689113
0.000946811598650275
0.000914282214866641
0.000887334485926256
0.000865456243155666
0.00084810237084972
0.000834721756461993
0.00082478038332626
0.000817779818235594
0.000813270684728479
0.000810861046917206
0.000810219936823055
0.00081107652262528
0.000813215622373649
0.000816470409323144
0.000820713227699324
0.000825845443546781
0.000831787200657827
0.000838467846166383
0.000845817646721072
0.000853761248350687
0.000862213154339261
0.000871075319458002
0.000880236796843896
0.000889575234916749
0.000898959912497719
0.000908255924522668
0.000917329089411802
0.00092605114116512
0.000934304791219239
0.000941988291959109
0.000949019200240048
0.000955337118412175
0.000960905276404251
0.000965710904636725
0.000969764429337762
0.000973097593907541
0.000975760669507839
0.000977818962385585
0.000979348853085975
0.000980433614048739
0.000981159247349393
0.000981610565648796
0.000981867708469066
0.000982003246009024
0.00098207997658824
0.000982149475063209
0.000982251400792662
0.000982413528637893
0.000982652426718075
0.000982974672707517
0.000983378477705267
0.00098385557390317
0.000984393219357112
0.000984976179761734
0.000985588562109925
0.000986215396917495
0.000986843892503968
0.00098746431424296
0.000988070472070167
0.000988659828199356
0.000989233262596786
0.000989794554630879
0.000990349654179532
0.000990905823916255
0.000991470736325601
0.000992051604479573
0.000992654415497705
0.000993283321521388
0.000993940225515086
0.000994624580682668
0.000995333403628147
0.000996061484524223
0.000996801763344324
0.000997545830877512
0.000998284507077578
0.000999008447599908
0.000999708731805214
0.00100037739166022
0.00100100784981492
0.00100159524561988
0.00100213663898313
0.00100263109245934
0.00100307964124786
0.00100348516755073
0.00100385220023525
0.00100418666229761
0.00100449558762967
0.00100478682570199
0.00100506874823849
0.00100534996691162
0.00100563906604936
0.0010059443502948
0.00100627360436227
0.00100663386112802
0.00100703117522027
0.00100747040186897
0.00100795498441129
0.00100848675842531
0.00100906578473942
0.00100969022706538
0.00101035629202205
0.00101105824929049
0.00101178854725801
0.00101253803480694
0.00101329629312893
0.00101405207271408
0.00101479382163027
0.00101551028152876
0.0010161911195034
0.00101682755734662
0.0010174129557308
0.0010179433100999
0.00101841761790869
0.00101883808317403
0.00101921013370516
0.00101954223856851
0.00101984552696012
0.0010201332241386
0.00102041993361387
0.00102072080705775
0.00102105065281423
0.00102142303973883
0.00102184945502187
0.00102233857239232
0.00102289568052856
0.00102352231166519
0.00102421609735779
0.00102497086341965
0.0010257769604883
0.00102662181116596
0.00102749064067689
0.00102836734622521
0.00102923545170819
0.00103007908928359
0.00103088394826144
0.00103163813423146
0.00103233288756286
0.0010329631194465
0.0010335277351014
0.00103402972683239
0.00103447603313269
0.00103487717378179
0.00103524668354331
0.00103560037830761
0.00103595549652188
0.00103632976551682
0.00103674044582434
0.00103720340763854
0.0010377322913586
0.00103833779918252
0.00103902715720107
0.00103980377773443
0.00104066714025592
0.0010416128966691
0.00104263319374751
0.00104371719274627
0.00104485175462338
0.00104602224926154
0.00104721343960904
0.00104841038711474
0.0010495993235989
0.00105076843703016
0.0010519085245702
0.00105301347512286
0.00105408055510124
0.00105511048454141
0.00105610730476639
0.00105707805265361
0.00105803226928035
0.00105898138119907
0.00105993799982022
0.00106091518836709
0.00106192574575622
0.00106298155314856
0.00106409302187856
0.00106526867189119
0.00106651485845847
0.00106783565311677
0.00106923287314123
0.00107070624372489
0.00107225366909161
0.00107387158350297
0.00107555535096012
0.00107729968282195
0.00107909904603803
0.00108094803965053
0.0010828417235638
0.00108477589028001
0.00108674727644556
0.00108875371612426
0.00109079424115123
0.00109286913562313
0.00109497995125781
0.0010971294887179
0.00109932174727649
0.00110156184219678
0.00110385588619392
0.00110621082966516
0.00110863425386365
0.00111113411240442
0.00111371841953332
0.00111639488837787
0.00111917052800981
0.0011220512144691
0.0011250412570899
0.00112814298630281
0.00113135639251872
0.00113467884649876
0.0011381049299325
0.00114162640018589
0.0011452323060992
0.00114890926214363
0.00115264187740535
0.0011564133244021
0.00116020602165197
0.0011640023940926
0.00116778566795693
0.00117154065227184
0.00117525445783811
0.00117891710720754
0.0011825219949402
0.00118606616660556
0.00118955039633803
0.00119297905576114
0.00119635978059542
0.00119970295445553
0.001203021040792
0.0012063278034094
0.00120963746228693
0.00121296383447453
0.0012163195093231
0.00121971510332854
0.00122315863296874
0.00122665503453753
0.00123020584911759
0.00123380907897251
0.00123745921028729
0.00124114738666393
0.00124486170917179
0.00124858763260702
0.00125230842425045
0.00125600565109224
0.00125965966394008
0.0012632500518787
0.00126675604737302
0.00127015687051037
0.00127343200916869
0.00127656143992833
0.00127952580112373
0.00128230653396948
0.00128488600977192
0.00128724766069818
0.00128937612822435
0.00129125743782964
0.0012928792011746
0.00129423083871854
0.00129530380792394
0.00129609181485322
0.00129659098237128
0.00129679994604658
0.00129671985008237
0.00129635422073554
0.00129570870325744
0.00129479065950423
0.00129360863670949
0.00129217173198173
0.00129048889026244
0.00128856818473563
0.00128641613628294
0.00128403713177078
0.00128143299851251
0.00127860278451938
0.00127554278092541
0.00127224680545765
0.00126870674508461
0.00126491333400466
0.00126085712158933
0.00125652956622062
0.00125192417661306
0.00124703761404053
0.00124187066788937
0.00123642902339879
0.00123072375426942
0.00122477149272476
0.00121859425449889
0.00121221892317906
0.00120567642604615
0.00119900065849921
0.00119222723478215
0.00118539215676425
0.0011785304987519
0.00117167520410019
0.00116485607903626
0.00115809905136761
0.00115142573829449
0.00114485334076937
0.00113839485382201
0.00113205955598469
0.00112585371841222
0.00111978145765324
0.00111384564659011
0.00110804879686747
0.00110239383247333
0.00109688468772704
0.00109152668204937
0.00108632664675121
0.00108129280325637
0.00107643441547028
0.00107176125950362
0.00106728296928949
0.00106300832622049
0.00105894456366321
0.00105509675347611
0.00105146733150659
0.00104805580443406
0.00104485866233639
0.00104186950176338
0.00103907934500845
0.00103647712438866
0.00103405028693623
0.00103178546593908
0.00102966916232434
0.00102768838029047
0.00102583116815978
0.00102408702561548
0.00102244715182418
0.0010209045236916
0.00101945380860177
0.00101809112974135
0.00101681371388684
0.00101561946020454
0.00101450647366057
0.00101347260776283
0.00101251505888723
0.00101163004878916
0.00101081262313777
0.00101005658369718
0.00100935456037723
0.00100869821772994
0.00100807857975871
0.00100748644766753
0.00100691287799928
0.00100634968389059
0.00100578992045569
0.0010052283163427
0.00100466161715605
0.00100408881257176
0.00100351122724732
0.00100293246496539
0.00100235820572463
0.00100179586580511
0.00100125414064492
0.00100074245850544
0.00100027037947659
0.000999846978675691
0.000999480253895156
0.000999176596814827
0.000998940362858408
0.000998773568491605
0.000998675736119629
0.000998643897067952
0.00099867275209549
0.000998754978385869
0.000998881661755235
0.000999042824446008
0.000999228012233184
0.000999426900741374
0.000999629879900724
0.000999828577199574
0.00100001628519935
0.00100018826585003
0.00100034191329308
0.00100047676705118
0.00100059437831209
0.00100069804252905
0.00100079242101635
0.00100088308173614
0.00100097599493589
0.0010010770218367
0.00100119143441248
0.0010013235013384
0.00100147616952801
0.00100165086290464
0.00100184741094048
0.00100206410934442
0.0010022979051089
0.00100254468880352
0.00100279966882361
0.0010030577964306
0.00100331420676374
0.00100356464033334
0.00100380581136397
0.00100403569409052
0.00100425370490709
0.00100446076675677
0.00100465925201074
0.0010048528096375
0.00100504609184976
0.00100524440338228
0.00100545330252952
0.00100567818648937
0.00100592389439336
0.00100619435930005
0.00100649233573941
0.00100681922248334
0.00100717499182404
0.0010075582274192
0.00100796626332679
0.00100839540870716
0.00100884123571206
0.00100929890348609
0.00100976348920281
0.0010102302978861
0.0010106951257733
0.00101115445770646
0.00101160558615288
0.00101204664737822
0.00101247657848533
0.00101289500649068
0.00101330208659874
0.00101369831069701
0.0010140843089469
0.00101446066647648
0.00101482777437924
0.00101518572925384
0.00101553428954884
0.00101587289028652
0.00101620071122149
0.00101651678778707
0.00101682015002427
0.00101710997214063
0.00101738571487281
0.00101764724441221
0.00101789491460221
0.00101812960370445
0.00101835270195627
0.00101856605152638
0.00101877184506213
0.00101897249288718
0.00101917047125828
0.00101936816520495
0.00101956771880658
0.00101977090408551
0.00101997901685863
0.00102019280456868
0.00102041242766541
0.00102063745293117
0.00102086687473208
0.00102109915850379
0.0010213323002159
0.00102156389572335
0.00102179121517545
0.0010220112789633
0.00102222093353604
0.00102241692689896
0.0010225959848302
0.0010227548893677
0.0010228905611041
0.00102300014615413
0.00102308110735572
0.00102313131790595
0.0010231491540776
0.00102313358254387
0.00102308423680676
0.00102300147720074
0.00102288642924107
0.00102274099604858
0.00102256784204096
0.00102237034674074
0.00102215252934729
0.00102191894612893
0.00102167456400645
0.00102142461439253
0.00102117443178673
0.00102092928154507
0.00102069418107536
0.00102047371856325
0.0010202718734563
0.0010200918431162
0.00101993588109786
0.0010198051537084
0.00101969962291205
0.00101961796514053
0.00101955753664139
0.00101951439625928
0.00101948339562137
0.00101945834452142
0.00101943225534702
0.00101939766498158
0.00101934702602149
0.00101927315197315
0.0010191696935857
0.00101903161690969
0.00101885564888066
0.00101864065362852
0.00101838790314685
0.00101810121008473
0.00101778689792069
0.00101745359423895
0.00101711184598273
0.00101677357009493
0.00101645136774046
0.00101615774358486
0.00101590428269954
0.00101570084471104
0.00101555483710946
0.00101547062674524
0.00101544914029741
0.00101548769148904
0.00101558005586437
0.0010157167948324
0.001015885810348
0.00101607309276417
0.00101626360799692
0.00101644225837318
0.00101659484489835
0.00101670895856435
0.001016774734204
0.00101678541194665
0.00101673766768454
0.00101663169333581
0.00101647102846929
0.0010162621649849
0.00101601396452195
0.00101573694200236
0.00101544247748489
0.00101514202151215
0.00101484635612267
0.0010145649653755
0.0010143055566117
0.00101407375796342
0.00101387300046153
0.0010137045764223
0.00101356785090872
0.00101346059146591
0.00101337937383743
0.00101332001865121
0.00101327801581705
0.00101324889935065
0.00101322854447283
0.00101321337006831
0.00101320044148634
0.00101318748017307
0.00101317279606396
0.00101315516580032
0.00101313368354199
0.00101310761141686
0.00101307625394573
0.00101303887522741
0.00101299467040546
0.00101294279450025
0.00101288244375317
0.00101281297727151
0.00101273406140126
0.00101264581620019
0.0010125489426565
0.0010124448111707
0.00101233549584524
0.00101222374479876
0.00101211288334076
0.00101200665372599
0.00101190900165896
0.00101182382527285
0.00101175470596321
0.0010117046427984
0.00101167581228665
0.0010116693734868
0.00101168533528488
0.00101172249807604
0.00101177847662869
0.00101184980503439
0.00101193211896989
0.00101202040499186
0.0010121093020385
0.00101219343662361
0.00101226777086284
0.00101232794118166
0.0010123705657106
0.00101239349981415
0.00101239602187554
0.00101237893511794
0.00101234457594321
0.0010122967247422
0.0010122404208231
0.0010121816893472
0.00101212719387184
0.00101208383352637
0.00101205830822546
0.00101205667854055
0.00101208394831589
0.00101214369803991
0.00101223779474612
0.00101236620020076
0.00101252689334528
0.00101271591586683
0.0010129275415614
0.00101315456167377
0.0010133886702481
0.0010136209260371
0.00101384226188462
0.00101404400853178
0.00101421839850733
0.00101435901663979
0.0010144611675133
0.00101452213590394
0.00101454132376855
0.00101452025612609
0.00101446245748309
0.00101437320934573
0.00101425920742535
0.00101412814359323
0.00101398824203072
0.00101384778125441
0.00101371463331718
0.00101359584908876
0.00101349731399378
0.00101342349264413
0.00101337727403005
0.00101335992157903
0.00101337112541042
0.00101340914772252
0.00101347104703625
0.0010135529629313
0.00101365044064452
0.00101375877364671
0.0010138733427182
0.00101398993142208
0.00101410500028811
0.00101421590492601
0.00101432104703517
0.00101441995086469
0.00101451326179101
0.00101460266769547
0.00101469074786223
0.00101478075807299
0.00101487636428131
0.00101498134070671
0.0010150992510777
0.00101523313381378
0.00101538521293251
0.00101555665656437
0.00101574740297009
0.0010159560707333
0.00101617996502347
0.00101641518544422
0.00101665683350276
0.00101689930984093
0.00101713668341966
0.00101736310773355
0.0010175732535916
0.00101776272456242
0.00101792842061146
0.0010180688177292
0.00101818413688385
0.00101827638361252
0.00101834924979451
0.00101840788068497
0.00101845852189677
0.00101850807175755
0.00101856357330026
0.00101863168606424
0.00101871818003875
0.00101882749273308
0.00101896238493641
0.00101912372225662
0.00101931039854603
0.00101951940498002
0.00101974603616133
0.00101998421335026
0.00102022689588816
0.00102046654598157
0.00102069560958892
0.00102090697741713
0.00102109439476467
0.00102125279597228
0.00102137854826451
0.00102146959920724
0.0010215255307232
0.00102154753003402
0.00102153829295622
0.00102150187727834
0.0010214435236577
0.00102136945899709
0.00102128669289834
0.00102120281291101
0.00102112577942253
0.00102106371745222
0.00102102470061376
0.00102101652281393
0.00102104645561662
0.00102112099365087
0.00102124559582353
0.00102142443600686
0.00102166018184836
0.00102195382366746
0.00102230457612709
0.00102270987301358
0.00102316546999574
0.00102366566179047
0.0010242036096867
0.00102477176369026
0.00102536235251015
0.00102596790485049
0.001026581758971
0.00102719851483308
0.0010278143852395
0.00102842740909038
0.00102903750103977
0.00102964632630178
0.00103025700586063
0.00103087367422672
0.00103150092736219
0.00103214321085551
0.00103280420618702
0.00103348627554432
0.00103419002185867
0.0010349140114683
0.0010356546925329
0.00103640652418584
0.00103716231130316
0.00103791371959162
0.00103865192747893
0.00103936835662574
0.00104005541357964
0.00104070717185865
0.00104131992720284
0.00104189256842577
0.00104242672168534
0.00104292664543692
0.00104339887534081
0.00104385164077514
0.00104429409558464
0.0010447354232229
0.00104518388902864
0.00104564591898881
0.00104612528417854
0.00104662246348518
0.00104713424438777
0.00104765360395445
0.00104816989088883
0.00104866930662099
0.00104913566057276
0.00104955135386664
0.00104989852836846
0.00105016030558401
0.00100392403620318
0.000996423802334769
0.000987423824149264
0.00097699310739449
0.000965276272259167
0.000952500208380899
0.00093897852873789
0.000925113419682587
0.00091139453025012
0.000898394605709972
0.000886761649460457
0.000877207494680645
0.000870492782876717
0.000867408478959308
0.000868754199426021
0.00087531378668688
0.000887828722437711
0.000906970127875237
0.000933310240340227
0.000967294374022505
0.00100921445800574
0.00105918528935177
0.0011171246350432
0.00118273826005241
0.00125551084717507
0.0013347036092878
0.00141935917993836
0.00150831411139989
0.00160021902012713
0.00169356611025022
0.00178672348949779
0.00187797538391473
0.00196556707200914
0.00204775311003376
0.00212284722058378
0.00218927207818248
0.00224560715653008
0.00229063280903309
0.00232336884024894
0.00234310599027822
0.0023494289939194
0.00234223018311263
0.00232171296446611
0.00228838490883113
0.00224304061957309
0.00218673498065633
0.00212074780406703
0.00204654127641165
0.00196571192650488
0.00187993908056178
0.00179093192406546
0.00170037733907972
0.001609890627529
0.00152097106642031
0.00143496397746568
0.00135303064565347
0.00127612700811656
0.00120499158050621
0.001140142619328
0.00108188406365399
0.0010303193844269
0.000985372118689113
0.000946811598650275
0.000914282214866641
0.000887334485926256
0.000865456243155666
0.00084810237084972
0.000834721756461993
0.00082478038332626
0.000817779818235594
0.000813270684728479
0.000810861046917206
0.000810219936823055
0.00081107652262528
0.000813215622373649
0.000816470409323144
0.000820713227699324
0.000825845443546781
0.000831787200657827
0.000838467846166383
0.000845817646721072
0.000853761248350687
0.000862213154339261
0.000871075319458002
0.000880236796843896
0.000889575234916749
0.000898959912497719
0.000908255924522668
0.000917329089411802
0.00092605114116512
0.000934304791219239
0.000941988291959109
0.000949019200240048
0.000955337118412175
0.000960905276404251
0.000965710904636725
0.000969764429337762
0.000973097593907541
0.000975760669507839
0.000977818962385585
0.000979348853085975
0.000980433614048739
0.000981159247349393
0.000981610565648796
0.000981867708469066
0.000982003246009024
0.00098207997658824
0.000982149475063209
0.000982251400792662
0.000982413528637893
0.000982652426718075
0.000982974672707517
0.000983378477705267
0.00098385557390317
0.000984393219357112
0.000984976179761734
0.000985588562109925
0.000986215396917495
0.000986843892503968
0.00098746431424296
0.000988070472070167
0.000988659828199356
0.000989233262596786
0.000989794554630879
0.000990349654179532
0.000990905823916255
0.000991470736325601
0.000992051604479573
0.000992654415497705
0.000993283321521388
0.000993940225515086
0.000994624580682668
0.000995333403628147
0.000996061484524223
0.000996801763344324
0.000997545830877512
0.000998284507077578
0.000999008447599908
0.000999708731805214
0.00100037739166022
0.00100100784981492
0.00100159524561988
0.00100213663898313
0.00100263109245934
0.00100307964124786
0.00100348516755073
0.00100385220023525
0.00100418666229761
0.00100449558762967
0.00100478682570199
0.00100506874823849
0.00100534996691162
0.00100563906604936
0.0010059443502948
0.00100627360436227
0.00100663386112802
0.00100703117522027
0.00100747040186897
0.00100795498441129
0.00100848675842531
0.00100906578473942
0.00100969022706538
0.00101035629202205
0.00101105824929049
0.00101178854725801
0.00101253803480694
0.00101329629312893
0.00101405207271408
0.00101479382163027
0.00101551028152876
0.0010161911195034
0.00101682755734662
0.0010174129557308
0.0010179433100999
0.00101841761790869
0.00101883808317403
0.00101921013370516
0.00101954223856851
0.00101984552696012
0.0010201332241386
0.00102041993361387
0.00102072080705775
0.00102105065281423
0.00102142303973883
0.00102184945502187
0.00102233857239232
0.00102289568052856
0.00102352231166519
0.00102421609735779
0.00102497086341965
0.0010257769604883
0.00102662181116596
0.00102749064067689
0.00102836734622521
0.00102923545170819
0.00103007908928359
0.00103088394826144
0.00103163813423146
0.00103233288756286
0.0010329631194465
0.0010335277351014
0.00103402972683239
0.00103447603313269
0.00103487717378179
0.00103524668354331
0.00103560037830761
0.00103595549652188
0.00103632976551682
0.00103674044582434
0.00103720340763854
0.0010377322913586
0.00103833779918252
0.00103902715720107
0.00103980377773443
0.00104066714025592
0.0010416128966691
0.00104263319374751
0.00104371719274627
0.00104485175462338
0.00104602224926154
0.00104721343960904
0.00104841038711474
0.0010495993235989
0.00105076843703016
0.0010519085245702
0.00105301347512286
0.00105408055510124
0.00105511048454141
0.00105610730476639
0.00105707805265361
0.00105803226928035
0.00105898138119907
0.00105993799982022
0.00106091518836709
0.00106192574575622
0.00106298155314856
0.00106409302187856
0.00106526867189119
0.00106651485845847
0.00106783565311677
0.00106923287314123
0.00107070624372489
0.00107225366909161
0.00107387158350297
0.00107555535096012
0.00107729968282195
0.00107909904603803
0.00108094803965053
0.0010828417235638
0.00108477589028001
0.00108674727644556
0.00108875371612426
0.00109079424115123
0.00109286913562313
0.00109497995125781
0.0010971294887179
0.00109932174727649
0.00110156184219678
0.00110385588619392
0.00110621082966516
0.00110863425386365
0.00111113411240442
0.00111371841953332
0.00111639488837787
0.00111917052800981
0.0011220512144691
0.0011250412570899
0.00112814298630281
0.00113135639251872
0.00113467884649876
0.0011381049299325
0.00114162640018589
0.0011452323060992
0.00114890926214363
0.00115264187740535
0.0011564133244021
0.00116020602165197
0.0011640023940926
0.00116778566795693
0.00117154065227184
0.00117525445783811
0.00117891710720754
0.0011825219949402
0.00118606616660556
0.00118955039633803
0.00119297905576114
0.00119635978059542
0.00119970295445553
0.001203021040792
0.0012063278034094
0.00120963746228693
0.00121296383447453
0.0012163195093231
0.00121971510332854
0.00122315863296874
0.00122665503453753
0.00123020584911759
0.00123380907897251
0.00123745921028729
0.00124114738666393
0.00124486170917179
0.00124858763260702
0.00125230842425045
0.00125600565109224
0.00125965966394008
0.0012632500518787
0.00126675604737302
0.00127015687051037
0.00127343200916869
0.00127656143992833
0.00127952580112373
0.00128230653396948
0.00128488600977192
0.00128724766069818
0.00128937612822435
0.00129125743782964
0.0012928792011746
0.00129423083871854
0.00129530380792394
0.00129609181485322
0.00129659098237128
0.00129679994604658
0.00129671985008237
0.00129635422073554
0.00129570870325744
0.00129479065950423
0.00129360863670949
0.00129217173198173
0.00129048889026244
0.00128856818473563
0.00128641613628294
0.00128403713177078
0.00128143299851251
0.00127860278451938
0.00127554278092541
0.00127224680545765
0.00126870674508461
0.00126491333400466
0.00126085712158933
0.00125652956622062
0.00125192417661306
0.00124703761404053
0.00124187066788937
0.00123642902339879
0.00123072375426942
0.00122477149272476
0.00121859425449889
0.00121221892317906
0.00120567642604615
0.00119900065849921
0.00119222723478215
0.00118539215676425
0.0011785304987519
0.00117167520410019
0.00116485607903626
0.00115809905136761
0.00115142573829449
0.00114485334076937
0.00113839485382201
0.00113205955598469
0.00112585371841222
0.00111978145765324
0.00111384564659011
0.00110804879686747
0.00110239383247333
0.00109688468772704
0.00109152668204937
0.00108632664675121
0.00108129280325637
0.00107643441547028
0.00107176125950362
0.00106728296928949
0.00106300832622049
0.00105894456366321
0.00105509675347611
0.00105146733150659
0.00104805580443406
0.00104485866233639
0.00104186950176338
0.00103907934500845
0.00103647712438866
0.00103405028693623
0.00103178546593908
0.00102966916232434
0.00102768838029047
0.00102583116815978
0.00102408702561548
0.00102244715182418
0.0010209045236916
0.00101945380860177
0.00101809112974135
0.00101681371388684
0.00101561946020454
0.00101450647366057
0.00101347260776283
0.00101251505888723
0.00101163004878916
0.00101081262313777
0.00101005658369718
0.00100935456037723
0.00100869821772994
0.00100807857975871
0.00100748644766753
0.00100691287799928
0.00100634968389059
0.00100578992045569
0.0010052283163427
0.00100466161715605
0.00100408881257176
0.00100351122724732
0.00100293246496539
0.00100235820572463
0.00100179586580511
0.00100125414064492
0.00100074245850544
0.00100027037947659
0.000999846978675691
0.000999480253895156
0.000999176596814827
0.000998940362858408
0.000998773568491605
0.000998675736119629
0.000998643897067952
0.00099867275209549
0.000998754978385869
0.000998881661755235
0.000999042824446008
0.000999228012233184
0.000999426900741374
0.000999629879900724
0.000999828577199574
0.00100001628519935
0.00100018826585003
0.00100034191329308
0.00100047676705118
0.00100059437831209
0.00100069804252905
0.00100079242101635
0.00100088308173614
0.00100097599493589
0.0010010770218367
0.00100119143441248
0.0010013235013384
0.00100147616952801
0.00100165086290464
0.00100184741094048
0.00100206410934442
0.0010022979051089
0.00100254468880352
0.00100279966882361
0.0010030577964306
0.00100331420676374
0.00100356464033334
0.00100380581136397
0.00100403569409052
0.00100425370490709
0.00100446076675677
0.00100465925201074
0.0010048528096375
0.00100504609184976
0.00100524440338228
0.00100545330252952
0.00100567818648937
0.00100592389439336
0.00100619435930005
0.00100649233573941
0.00100681922248334
0.00100717499182404
0.0010075582274192
0.00100796626332679
0.00100839540870716
0.00100884123571206
0.00100929890348609
0.00100976348920281
0.0010102302978861
0.0010106951257733
0.00101115445770646
0.00101160558615288
0.00101204664737822
0.00101247657848533
0.00101289500649068
0.00101330208659874
0.00101369831069701
0.0010140843089469
0.00101446066647648
0.00101482777437924
0.00101518572925384
0.00101553428954884
0.00101587289028652
0.00101620071122149
0.00101651678778707
0.00101682015002427
0.00101710997214063
0.00101738571487281
0.00101764724441221
0.00101789491460221
0.00101812960370445
0.00101835270195627
0.00101856605152638
0.00101877184506213
0.00101897249288718
0.00101917047125828
0.00101936816520495
0.00101956771880658
0.00101977090408551
0.00101997901685863
0.00102019280456868
0.00102041242766541
0.00102063745293117
0.00102086687473208
0.00102109915850379
0.0010213323002159
0.00102156389572335
0.00102179121517545
0.0010220112789633
0.00102222093353604
0.00102241692689896
0.0010225959848302
0.0010227548893677
0.0010228905611041
0.00102300014615413
0.00102308110735572
0.00102313131790595
0.0010231491540776
0.00102313358254387
0.00102308423680676
0.00102300147720074
0.00102288642924107
0.00102274099604858
0.00102256784204096
0.00102237034674074
0.00102215252934729
0.00102191894612893
0.00102167456400645
0.00102142461439253
0.00102117443178673
0.00102092928154507
0.00102069418107536
0.00102047371856325
0.0010202718734563
0.0010200918431162
0.00101993588109786
0.0010198051537084
0.00101969962291205
0.00101961796514053
0.00101955753664139
0.00101951439625928
0.00101948339562137
0.00101945834452142
0.00101943225534702
0.00101939766498158
0.00101934702602149
0.00101927315197315
0.0010191696935857
0.00101903161690969
0.00101885564888066
0.00101864065362852
0.00101838790314685
0.00101810121008473
0.00101778689792069
0.00101745359423895
0.00101711184598273
0.00101677357009493
0.00101645136774046
0.00101615774358486
0.00101590428269954
0.00101570084471104
0.00101555483710946
0.00101547062674524
0.00101544914029741
0.00101548769148904
0.00101558005586437
0.0010157167948324
0.001015885810348
0.00101607309276417
0.00101626360799692
0.00101644225837318
0.00101659484489835
0.00101670895856435
0.001016774734204
0.00101678541194665
0.00101673766768454
0.00101663169333581
0.00101647102846929
0.0010162621649849
0.00101601396452195
0.00101573694200236
0.00101544247748489
0.00101514202151215
0.00101484635612267
0.0010145649653755
0.0010143055566117
0.00101407375796342
0.00101387300046153
0.0010137045764223
0.00101356785090872
0.00101346059146591
0.00101337937383743
0.00101332001865121
0.00101327801581705
0.00101324889935065
0.00101322854447283
0.00101321337006831
0.00101320044148634
0.00101318748017307
0.00101317279606396
0.00101315516580032
0.00101313368354199
0.00101310761141686
0.00101307625394573
0.00101303887522741
0.00101299467040546
0.00101294279450025
0.00101288244375317
0.00101281297727151
0.00101273406140126
0.00101264581620019
0.0010125489426565
0.0010124448111707
0.00101233549584524
0.00101222374479876
0.00101211288334076
0.00101200665372599
0.00101190900165896
0.00101182382527285
0.00101175470596321
0.0010117046427984
0.00101167581228665
0.0010116693734868
0.00101168533528488
0.00101172249807604
0.00101177847662869
0.00101184980503439
0.00101193211896989
0.00101202040499186
0.0010121093020385
0.00101219343662361
0.00101226777086284
0.00101232794118166
0.0010123705657106
0.00101239349981415
0.00101239602187554
0.00101237893511794
0.00101234457594321
0.0010122967247422
0.0010122404208231
0.0010121816893472
0.00101212719387184
0.00101208383352637
0.00101205830822546
0.00101205667854055
0.00101208394831589
0.00101214369803991
0.00101223779474612
0.00101236620020076
0.00101252689334528
0.00101271591586683
0.0010129275415614
0.00101315456167377
0.0010133886702481
0.0010136209260371
0.00101384226188462
0.00101404400853178
0.00101421839850733
0.00101435901663979
0.0010144611675133
0.00101452213590394
0.00101454132376855
0.00101452025612609
0.00101446245748309
0.00101437320934573
0.00101425920742535
0.00101412814359323
0.00101398824203072
0.00101384778125441
0.00101371463331718
0.00101359584908876
0.00101349731399378
0.00101342349264413
0.00101337727403005
0.00101335992157903
0.00101337112541042
0.00101340914772252
0.00101347104703625
0.0010135529629313
0.00101365044064452
0.00101375877364671
0.0010138733427182
0.00101398993142208
0.00101410500028811
0.00101421590492601
0.00101432104703517
0.00101441995086469
0.00101451326179101
0.00101460266769547
0.00101469074786223
0.00101478075807299
0.00101487636428131
0.00101498134070671
0.0010150992510777
0.00101523313381378
0.00101538521293251
0.00101555665656437
0.00101574740297009
0.0010159560707333
0.00101617996502347
0.00101641518544422
0.00101665683350276
0.00101689930984093
0.00101713668341966
0.00101736310773355
0.0010175732535916
0.00101776272456242
0.00101792842061146
0.0010180688177292
0.00101818413688385
0.00101827638361252
0.00101834924979451
0.00101840788068497
0.00101845852189677
0.00101850807175755
0.00101856357330026
0.00101863168606424
0.00101871818003875
0.00101882749273308
0.00101896238493641
0.00101912372225662
0.00101931039854603
0.00101951940498002
0.00101974603616133
0.00101998421335026
0.00102022689588816
0.00102046654598157
0.00102069560958892
0.00102090697741713
0.00102109439476467
0.00102125279597228
0.00102137854826451
0.00102146959920724
0.0010215255307232
0.00102154753003402
0.00102153829295622
0.00102150187727834
0.0010214435236577
0.00102136945899709
0.00102128669289834
0.00102120281291101
0.00102112577942253
0.00102106371745222
0.00102102470061376
0.00102101652281393
0.00102104645561662
0.00102112099365087
0.00102124559582353
0.00102142443600686
0.00102166018184836
0.00102195382366746
0.00102230457612709
0.00102270987301358
0.00102316546999574
0.00102366566179047
0.0010242036096867
0.00102477176369026
0.00102536235251015
0.00102596790485049
0.001026581758971
0.00102719851483308
0.0010278143852395
0.00102842740909038
0.00102903750103977
0.00102964632630178
0.00103025700586063
0.00103087367422672
0.00103150092736219
0.00103214321085551
0.00103280420618702
0.00103348627554432
0.00103419002185867
0.0010349140114683
0.0010356546925329
0.00103640652418584
0.00103716231130316
0.00103791371959162
0.00103865192747893
0.00103936835662574
0.00104005541357964
0.00104070717185865
0.00104131992720284
0.00104189256842577
0.00104242672168534
0.00104292664543692
0.00104339887534081
0.00104385164077514
0.00104429409558464
0.0010447354232229
0.00104518388902864
0.00104564591898881
0.00104612528417854
0.00104662246348518
0.00104713424438777
0.00104765360395445
0.00104816989088883
0.00104866930662099
0.00104913566057276
0.00104955135386664
0.00104989852836846
0.00105016030558401
